,time_ms,MLII,V1
0,0.0,-0.26,-0.21
1,2.7777777777777777,-0.26,-0.21
2,5.555555555555555,-0.26,-0.21
3,8.333333333333334,-0.26,-0.21
4,11.11111111111111,-0.26,-0.21
5,13.888888888888888,-0.26,-0.21
6,16.666666666666668,-0.26,-0.21
7,19.444444444444446,-0.26,-0.21
8,22.22222222222222,-0.26,-0.195
9,25.0,-0.25,-0.185
10,27.777777777777775,-0.24,-0.175
11,30.555555555555554,-0.225,-0.17
12,33.333333333333336,-0.21,-0.18
13,36.11111111111111,-0.2,-0.18
14,38.88888888888889,-0.2,-0.19
15,41.666666666666664,-0.2,-0.17
16,44.44444444444444,-0.18,-0.18
17,47.22222222222222,-0.17,-0.185
18,50.0,-0.155,-0.185
19,52.77777777777778,-0.165,-0.19
20,55.55555555555555,-0.17,-0.195
21,58.333333333333336,-0.175,-0.195
22,61.11111111111111,-0.17,-0.175
23,63.888888888888886,-0.165,-0.165
24,66.66666666666667,-0.16,-0.16
25,69.44444444444444,-0.17,-0.205
26,72.22222222222221,-0.175,-0.26
27,75.0,-0.185,-0.295
28,77.77777777777779,-0.175,-0.295
29,80.55555555555556,-0.17,-0.255
30,83.33333333333333,-0.165,-0.24
31,86.11111111111111,-0.175,-0.245
32,88.88888888888889,-0.2,-0.26
33,91.66666666666666,-0.205,-0.295
34,94.44444444444444,-0.21,-0.3
35,97.22222222222223,-0.21,-0.29
36,100.0,-0.21,-0.28
37,102.77777777777777,-0.225,-0.285
38,105.55555555555556,-0.24,-0.285
39,108.33333333333334,-0.25,-0.275
40,111.1111111111111,-0.245,-0.265
41,113.88888888888889,-0.245,-0.245
42,116.66666666666667,-0.25,-0.245
43,119.44444444444446,-0.255,-0.255
44,122.22222222222221,-0.27,-0.255
45,125.0,-0.29,-0.245
46,127.77777777777777,-0.305,-0.23
47,130.55555555555557,-0.31,-0.215
48,133.33333333333334,-0.305,-0.2
49,136.1111111111111,-0.305,-0.19
50,138.88888888888889,-0.31,-0.2
51,141.66666666666666,-0.31,-0.185
52,144.44444444444443,-0.31,-0.18
53,147.22222222222223,-0.295,-0.165
54,150.0,-0.3,-0.175
55,152.7777777777778,-0.32,-0.16
56,155.55555555555557,-0.325,-0.155
57,158.33333333333331,-0.325,-0.13
58,161.11111111111111,-0.32,-0.125
59,163.88888888888889,-0.305,-0.14
60,166.66666666666666,-0.29,-0.155
61,169.44444444444446,-0.295,-0.155
62,172.22222222222223,-0.29,-0.16
63,175.0,-0.305,-0.14
64,177.77777777777777,-0.295,-0.12
65,180.55555555555554,-0.285,-0.09
66,183.33333333333331,-0.295,-0.115
67,186.11111111111111,-0.295,-0.13
68,188.88888888888889,-0.3,-0.135
69,191.66666666666669,-0.305,-0.125
70,194.44444444444446,-0.285,-0.1
71,197.22222222222223,-0.285,-0.085
72,200.0,-0.28,-0.095
73,202.77777777777777,-0.285,-0.11
74,205.55555555555554,-0.29,-0.115
75,208.33333333333334,-0.295,-0.095
76,211.11111111111111,-0.295,-0.085
77,213.88888888888889,-0.28,-0.075
78,216.66666666666669,-0.275,-0.065
79,219.44444444444443,-0.265,-0.065
80,222.2222222222222,-0.255,-0.085
81,225.0,-0.26,-0.085
82,227.77777777777777,-0.245,-0.1
83,230.55555555555557,-0.235,-0.105
84,233.33333333333334,-0.235,-0.11
85,236.11111111111111,-0.24,-0.14
86,238.8888888888889,-0.24,-0.155
87,241.66666666666666,-0.255,-0.165
88,244.44444444444443,-0.25,-0.175
89,247.22222222222223,-0.245,-0.19
90,250.0,-0.245,-0.2
91,252.77777777777777,-0.255,-0.21
92,255.55555555555554,-0.26,-0.23
93,258.33333333333337,-0.265,-0.22
94,261.11111111111114,-0.26,-0.215
95,263.8888888888889,-0.27,-0.205
96,266.6666666666667,-0.275,-0.195
97,269.44444444444446,-0.29,-0.205
98,272.2222222222222,-0.3,-0.23
99,275.0,-0.305,-0.235
100,277.77777777777777,-0.31,-0.22
101,280.55555555555554,-0.305,-0.215
102,283.3333333333333,-0.29,-0.235
103,286.1111111111111,-0.285,-0.26
104,288.88888888888886,-0.3,-0.265
105,291.6666666666667,-0.3,-0.265
106,294.44444444444446,-0.295,-0.245
107,297.22222222222223,-0.285,-0.225
108,300.0,-0.285,-0.22
109,302.77777777777777,-0.28,-0.23
110,305.5555555555556,-0.29,-0.26
111,308.33333333333337,-0.305,-0.26
112,311.11111111111114,-0.3,-0.245
113,313.88888888888886,-0.3,-0.23
114,316.66666666666663,-0.305,-0.225
115,319.4444444444444,-0.315,-0.235
116,322.22222222222223,-0.335,-0.23
117,325.0,-0.345,-0.2
118,327.77777777777777,-0.34,-0.17
119,330.55555555555554,-0.33,-0.155
120,333.3333333333333,-0.325,-0.145
121,336.11111111111114,-0.325,-0.145
122,338.8888888888889,-0.33,-0.165
123,341.6666666666667,-0.325,-0.175
124,344.44444444444446,-0.315,-0.175
125,347.22222222222223,-0.3,-0.155
126,350.0,-0.305,-0.15
127,352.7777777777778,-0.315,-0.145
128,355.55555555555554,-0.335,-0.12
129,358.3333333333333,-0.335,-0.1
130,361.1111111111111,-0.325,-0.075
131,363.88888888888886,-0.31,-0.08
132,366.66666666666663,-0.305,-0.11
133,369.44444444444446,-0.32,-0.145
134,372.22222222222223,-0.33,-0.17
135,375.0,-0.33,-0.17
136,377.77777777777777,-0.31,-0.15
137,380.55555555555554,-0.305,-0.14
138,383.33333333333337,-0.31,-0.135
139,386.11111111111114,-0.32,-0.135
140,388.8888888888889,-0.335,-0.135
141,391.6666666666667,-0.33,-0.115
142,394.44444444444446,-0.315,-0.075
143,397.2222222222222,-0.305,-0.05
144,400.0,-0.265,-0.05
145,402.77777777777777,-0.24,-0.09
146,405.55555555555554,-0.21,-0.17
147,408.3333333333333,-0.19,-0.235
148,411.1111111111111,-0.17,-0.3
149,413.88888888888886,-0.13,-0.355
150,416.6666666666667,-0.08,-0.44
151,419.44444444444446,0.005,-0.535
152,422.22222222222223,0.1,-0.64
153,425.0,0.185,-0.74
154,427.77777777777777,0.305,-0.84
155,430.5555555555556,0.43,-0.87
156,433.33333333333337,0.58,-0.86
157,436.11111111111114,0.705,-0.845
158,438.88888888888886,0.765,-0.815
159,441.66666666666663,0.835,-0.755
160,444.4444444444444,0.89,-0.625
161,447.22222222222223,0.87,-0.485
162,450.0,0.75,-0.36
163,452.77777777777777,0.575,-0.275
164,455.55555555555554,0.375,-0.255
165,458.3333333333333,0.15,-0.26
166,461.11111111111114,-0.03,-0.28
167,463.8888888888889,-0.13,-0.28
168,466.6666666666667,-0.18,-0.265
169,469.44444444444446,-0.22,-0.255
170,472.22222222222223,-0.23,-0.23
171,475.0,-0.235,-0.205
172,477.7777777777778,-0.215,-0.175
173,480.55555555555554,-0.215,-0.175
174,483.3333333333333,-0.22,-0.16
175,486.1111111111111,-0.235,-0.175
176,488.88888888888886,-0.255,-0.175
177,491.66666666666663,-0.265,-0.165
178,494.44444444444446,-0.275,-0.145
179,497.22222222222223,-0.275,-0.125
180,500.0,-0.295,-0.11
181,502.77777777777777,-0.3,-0.09
182,505.55555555555554,-0.305,-0.07
183,508.3333333333333,-0.31,-0.05
184,511.1111111111111,-0.3,-0.035
185,513.8888888888888,-0.315,-0.02
186,516.6666666666667,-0.325,-0.075
187,519.4444444444445,-0.345,-0.17
188,522.2222222222223,-0.335,-0.255
189,525.0,-0.34,-0.27
190,527.7777777777778,-0.32,-0.24
191,530.5555555555555,-0.295,-0.2
192,533.3333333333334,-0.285,-0.19
193,536.1111111111111,-0.295,-0.185
194,538.8888888888889,-0.315,-0.185
195,541.6666666666666,-0.32,-0.185
196,544.4444444444443,-0.325,-0.175
197,547.2222222222223,-0.325,-0.16
198,550.0,-0.325,-0.15
199,552.7777777777778,-0.335,-0.145
200,555.5555555555555,-0.325,-0.155
201,558.3333333333334,-0.335,-0.145
202,561.1111111111111,-0.32,-0.115
203,563.8888888888889,-0.32,-0.105
204,566.6666666666666,-0.31,-0.095
205,569.4444444444445,-0.31,-0.08
206,572.2222222222222,-0.3,-0.085
207,575.0,-0.28,-0.08
208,577.7777777777777,-0.255,-0.07
209,580.5555555555557,-0.235,-0.065
210,583.3333333333334,-0.21,-0.07
211,586.1111111111111,-0.205,-0.08
212,588.8888888888889,-0.2,-0.08
213,591.6666666666666,-0.205,-0.07
214,594.4444444444445,-0.215,-0.07
215,597.2222222222222,-0.195,-0.045
216,600.0,-0.195,-0.06
217,602.7777777777777,-0.205,-0.115
218,605.5555555555555,-0.21,-0.175
219,608.3333333333333,-0.215,-0.18
220,611.1111111111112,-0.21,-0.16
221,613.8888888888889,-0.195,-0.15
222,616.6666666666667,-0.175,-0.19
223,619.4444444444445,-0.165,-0.23
224,622.2222222222223,-0.175,-0.235
225,625.0,-0.165,-0.23
226,627.7777777777777,-0.16,-0.21
227,630.5555555555555,-0.16,-0.21
228,633.3333333333333,-0.16,-0.205
229,636.1111111111111,-0.165,-0.22
230,638.8888888888888,-0.17,-0.255
231,641.6666666666667,-0.185,-0.3
232,644.4444444444445,-0.2,-0.315
233,647.2222222222223,-0.19,-0.325
234,650.0,-0.18,-0.32
235,652.7777777777778,-0.175,-0.325
236,655.5555555555555,-0.165,-0.315
237,658.3333333333334,-0.175,-0.295
238,661.1111111111111,-0.17,-0.29
239,663.8888888888889,-0.165,-0.26
240,666.6666666666666,-0.17,-0.26
241,669.4444444444443,-0.175,-0.26
242,672.2222222222223,-0.19,-0.255
243,675.0,-0.195,-0.245
244,677.7777777777778,-0.205,-0.21
245,680.5555555555555,-0.195,-0.165
246,683.3333333333334,-0.21,-0.16
247,686.1111111111111,-0.205,-0.175
248,688.8888888888889,-0.215,-0.195
249,691.6666666666666,-0.225,-0.195
250,694.4444444444445,-0.225,-0.145
251,697.2222222222222,-0.22,-0.105
252,700.0,-0.23,-0.11
253,702.7777777777777,-0.25,-0.15
254,705.5555555555557,-0.265,-0.135
255,708.3333333333334,-0.29,-0.06
256,711.1111111111111,-0.285,0.005
257,713.8888888888889,-0.275,0.03
258,716.6666666666666,-0.275,-0.03
259,719.4444444444445,-0.3,-0.14
260,722.2222222222222,-0.33,-0.21
261,725.0,-0.335,-0.23
262,727.7777777777777,-0.31,-0.21
263,730.5555555555555,-0.28,-0.165
264,733.3333333333333,-0.265,-0.135
265,736.1111111111112,-0.255,-0.115
266,738.8888888888889,-0.25,-0.12
267,741.6666666666667,-0.255,-0.09
268,744.4444444444445,-0.27,-0.08
269,747.2222222222223,-0.26,-0.075
270,750.0,-0.25,-0.075
271,752.7777777777777,-0.24,-0.09
272,755.5555555555555,-0.24,-0.095
273,758.3333333333333,-0.24,-0.08
274,761.1111111111111,-0.215,-0.075
275,763.8888888888888,-0.215,-0.04
276,766.6666666666667,-0.22,-0.055
277,769.4444444444445,-0.235,-0.08
278,772.2222222222223,-0.24,-0.12
279,775.0,-0.26,-0.15
280,777.7777777777778,-0.255,-0.125
281,780.5555555555555,-0.255,-0.12
282,783.3333333333334,-0.26,-0.125
283,786.1111111111111,-0.255,-0.115
284,788.8888888888889,-0.26,-0.11
285,791.6666666666666,-0.265,-0.085
286,794.4444444444443,-0.255,-0.065
287,797.2222222222223,-0.255,-0.09
288,800.0,-0.265,-0.145
289,802.7777777777778,-0.27,-0.22
290,805.5555555555555,-0.275,-0.23
291,808.3333333333334,-0.28,-0.225
292,811.1111111111111,-0.265,-0.2
293,813.8888888888889,-0.27,-0.17
294,816.6666666666666,-0.265,-0.14
295,819.4444444444445,-0.275,-0.155
296,822.2222222222222,-0.275,-0.19
297,825.0,-0.29,-0.225
298,827.7777777777777,-0.295,-0.245
299,830.5555555555557,-0.3,-0.255
300,833.3333333333334,-0.29,-0.25
301,836.1111111111111,-0.295,-0.245
302,838.8888888888889,-0.305,-0.24
303,841.6666666666666,-0.315,-0.22
304,844.4444444444445,-0.315,-0.185
305,847.2222222222222,-0.31,-0.16
306,850.0,-0.305,-0.15
307,852.7777777777777,-0.305,-0.16
308,855.5555555555555,-0.295,-0.165
309,858.3333333333333,-0.32,-0.16
310,861.1111111111112,-0.33,-0.14
311,863.8888888888889,-0.33,-0.13
312,866.6666666666667,-0.33,-0.12
313,869.4444444444445,-0.335,-0.08
314,872.2222222222223,-0.35,-0.035
315,875.0,-0.34,-0.005
316,877.7777777777777,-0.325,0.005
317,880.5555555555555,-0.305,0.02
318,883.3333333333333,-0.295,0.055
319,886.1111111111111,-0.3,0.045
320,888.8888888888888,-0.32,-0.02
321,891.6666666666667,-0.35,-0.065
322,894.4444444444445,-0.36,-0.045
323,897.2222222222223,-0.345,0.01
324,900.0,-0.315,0.015
325,902.7777777777778,-0.29,-0.03
326,905.5555555555555,-0.29,-0.085
327,908.3333333333334,-0.295,-0.15
328,911.1111111111111,-0.335,-0.165
329,913.8888888888889,-0.335,-0.175
330,916.6666666666666,-0.32,-0.17
331,919.4444444444443,-0.295,-0.17
332,922.2222222222223,-0.29,-0.17
333,925.0,-0.285,-0.175
334,927.7777777777778,-0.275,-0.165
335,930.5555555555555,-0.28,-0.15
336,933.3333333333334,-0.27,-0.13
337,936.1111111111111,-0.265,-0.115
338,938.8888888888889,-0.285,-0.09
339,941.6666666666666,-0.285,-0.07
340,944.4444444444445,-0.27,-0.06
341,947.2222222222222,-0.275,-0.07
342,950.0,-0.29,-0.07
343,952.7777777777777,-0.3,-0.05
344,955.5555555555557,-0.31,-0.075
345,958.3333333333334,-0.315,-0.15
346,961.1111111111111,-0.32,-0.215
347,963.8888888888889,-0.305,-0.245
348,966.6666666666666,-0.29,-0.2
349,969.4444444444445,-0.28,-0.145
350,972.2222222222222,-0.285,-0.115
351,975.0,-0.29,-0.1
352,977.7777777777777,-0.29,-0.135
353,980.5555555555555,-0.29,-0.2
354,983.3333333333333,-0.295,-0.24
355,986.1111111111112,-0.305,-0.25
356,988.8888888888889,-0.31,-0.255
357,991.6666666666667,-0.29,-0.25
358,994.4444444444445,-0.27,-0.235
359,997.2222222222223,-0.255,-0.2
360,1000.0,-0.25,-0.165
361,1002.7777777777777,-0.28,-0.16
362,1005.5555555555555,-0.315,-0.175
363,1008.3333333333333,-0.35,-0.2
364,1011.1111111111111,-0.365,-0.18
365,1013.8888888888888,-0.36,-0.165
366,1016.6666666666666,-0.345,-0.14
367,1019.4444444444443,-0.335,-0.13
368,1022.2222222222222,-0.345,-0.125
369,1025.0,-0.325,-0.085
370,1027.7777777777776,-0.31,-0.07
371,1030.5555555555554,-0.295,-0.055
372,1033.3333333333335,-0.3,-0.025
373,1036.1111111111113,-0.285,0.04
374,1038.888888888889,-0.27,0.12
375,1041.6666666666667,-0.265,0.15
376,1044.4444444444446,-0.26,0.1
377,1047.2222222222222,-0.29,0.03
378,1050.0,-0.29,-0.045
379,1052.7777777777778,-0.285,-0.11
380,1055.5555555555557,-0.265,-0.14
381,1058.3333333333333,-0.265,-0.125
382,1061.111111111111,-0.24,-0.09
383,1063.888888888889,-0.23,-0.115
384,1066.6666666666667,-0.24,-0.185
385,1069.4444444444443,-0.27,-0.235
386,1072.2222222222222,-0.28,-0.255
387,1075.0,-0.285,-0.235
388,1077.7777777777778,-0.27,-0.23
389,1080.5555555555554,-0.245,-0.225
390,1083.3333333333333,-0.225,-0.21
391,1086.111111111111,-0.215,-0.215
392,1088.8888888888887,-0.215,-0.23
393,1091.6666666666665,-0.235,-0.23
394,1094.4444444444446,-0.245,-0.215
395,1097.2222222222224,-0.255,-0.2
396,1100.0,-0.26,-0.195
397,1102.7777777777778,-0.275,-0.19
398,1105.5555555555557,-0.295,-0.18
399,1108.3333333333335,-0.3,-0.145
400,1111.111111111111,-0.28,-0.13
401,1113.888888888889,-0.265,-0.125
402,1116.6666666666667,-0.235,-0.155
403,1119.4444444444446,-0.21,-0.24
404,1122.2222222222222,-0.195,-0.35
405,1125.0,-0.18,-0.445
406,1127.7777777777778,-0.12,-0.545
407,1130.5555555555554,-0.04,-0.63
408,1133.3333333333333,0.1,-0.735
409,1136.111111111111,0.235,-0.845
410,1138.888888888889,0.35,-0.905
411,1141.6666666666665,0.475,-0.855
412,1144.4444444444443,0.62,-0.74
413,1147.2222222222222,0.735,-0.61
414,1150.0,0.85,-0.545
415,1152.7777777777776,0.945,-0.505
416,1155.5555555555554,0.98,-0.43
417,1158.3333333333335,0.89,-0.3
418,1161.1111111111113,0.72,-0.145
419,1163.888888888889,0.5,-0.02
420,1166.6666666666667,0.27,0.065
421,1169.4444444444446,0.045,0.09
422,1172.2222222222222,-0.12,0.01
423,1175.0,-0.245,-0.095
424,1177.7777777777778,-0.33,-0.16
425,1180.5555555555557,-0.35,-0.175
426,1183.3333333333333,-0.3,-0.175
427,1186.111111111111,-0.235,-0.175
428,1188.888888888889,-0.205,-0.225
429,1191.6666666666667,-0.195,-0.245
430,1194.4444444444443,-0.2,-0.235
431,1197.2222222222222,-0.195,-0.2
432,1200.0,-0.2,-0.19
433,1202.7777777777778,-0.21,-0.205
434,1205.5555555555554,-0.215,-0.22
435,1208.3333333333333,-0.23,-0.215
436,1211.111111111111,-0.235,-0.225
437,1213.8888888888887,-0.23,-0.23
438,1216.6666666666665,-0.22,-0.22
439,1219.4444444444446,-0.225,-0.24
440,1222.2222222222224,-0.24,-0.25
441,1225.0,-0.25,-0.25
442,1227.7777777777778,-0.235,-0.235
443,1230.5555555555557,-0.24,-0.23
444,1233.3333333333335,-0.245,-0.235
445,1236.111111111111,-0.245,-0.24
446,1238.888888888889,-0.255,-0.26
447,1241.6666666666667,-0.255,-0.245
448,1244.4444444444446,-0.255,-0.235
449,1247.2222222222222,-0.25,-0.22
450,1250.0,-0.25,-0.195
451,1252.7777777777778,-0.25,-0.195
452,1255.5555555555554,-0.24,-0.19
453,1258.3333333333333,-0.24,-0.175
454,1261.111111111111,-0.235,-0.19
455,1263.888888888889,-0.22,-0.205
456,1266.6666666666665,-0.225,-0.27
457,1269.4444444444443,-0.23,-0.325
458,1272.2222222222222,-0.22,-0.32
459,1275.0,-0.205,-0.27
460,1277.7777777777776,-0.19,-0.245
461,1280.5555555555554,-0.18,-0.235
462,1283.3333333333335,-0.18,-0.27
463,1286.1111111111113,-0.185,-0.315
464,1288.888888888889,-0.215,-0.35
465,1291.6666666666667,-0.21,-0.335
466,1294.4444444444446,-0.18,-0.305
467,1297.2222222222222,-0.165,-0.295
468,1300.0,-0.14,-0.285
469,1302.7777777777778,-0.125,-0.27
470,1305.5555555555557,-0.13,-0.265
471,1308.3333333333333,-0.12,-0.255
472,1311.111111111111,-0.12,-0.245
473,1313.888888888889,-0.11,-0.235
474,1316.6666666666667,-0.11,-0.24
475,1319.4444444444443,-0.105,-0.245
476,1322.2222222222222,-0.1,-0.255
477,1325.0,-0.095,-0.26
478,1327.7777777777778,-0.09,-0.24
479,1330.5555555555554,-0.085,-0.245
480,1333.3333333333333,-0.075,-0.25
481,1336.111111111111,-0.085,-0.26
482,1338.8888888888887,-0.085,-0.275
483,1341.6666666666665,-0.09,-0.26
484,1344.4444444444446,-0.065,-0.255
485,1347.2222222222224,-0.05,-0.235
486,1350.0,-0.045,-0.235
487,1352.7777777777778,-0.055,-0.24
488,1355.5555555555557,-0.06,-0.28
489,1358.3333333333335,-0.06,-0.305
490,1361.111111111111,-0.045,-0.315
491,1363.888888888889,-0.045,-0.3
492,1366.6666666666667,-0.025,-0.29
493,1369.4444444444446,-0.025,-0.29
494,1372.2222222222222,-0.03,-0.32
495,1375.0,-0.025,-0.335
496,1377.7777777777778,-0.025,-0.345
497,1380.5555555555554,-0.01,-0.35
498,1383.3333333333333,-0.005,-0.35
499,1386.111111111111,0.0,-0.36
500,1388.888888888889,-0.01,-0.355
501,1391.6666666666665,-0.005,-0.345
502,1394.4444444444443,-0.005,-0.32
503,1397.2222222222222,-0.01,-0.305
504,1400.0,-0.015,-0.29
505,1402.7777777777776,-0.03,-0.305
506,1405.5555555555554,-0.05,-0.3
507,1408.3333333333335,-0.075,-0.29
508,1411.1111111111113,-0.06,-0.28
509,1413.888888888889,-0.07,-0.255
510,1416.6666666666667,-0.07,-0.255
511,1419.4444444444446,-0.08,-0.26
512,1422.2222222222222,-0.09,-0.265
513,1425.0,-0.11,-0.27
514,1427.7777777777778,-0.09,-0.245
515,1430.5555555555557,-0.095,-0.23
516,1433.3333333333333,-0.095,-0.21
517,1436.111111111111,-0.11,-0.205
518,1438.888888888889,-0.14,-0.22
519,1441.6666666666667,-0.145,-0.215
520,1444.4444444444443,-0.16,-0.21
521,1447.2222222222222,-0.145,-0.21
522,1450.0,-0.155,-0.21
523,1452.7777777777778,-0.15,-0.205
524,1455.5555555555554,-0.16,-0.2
525,1458.3333333333333,-0.16,-0.205
526,1461.111111111111,-0.16,-0.21
527,1463.8888888888887,-0.15,-0.195
528,1466.6666666666665,-0.14,-0.195
529,1469.4444444444446,-0.15,-0.19
530,1472.2222222222224,-0.155,-0.195
531,1475.0,-0.17,-0.185
532,1477.7777777777778,-0.15,-0.185
533,1480.5555555555557,-0.14,-0.165
534,1483.3333333333335,-0.125,-0.16
535,1486.111111111111,-0.13,-0.17
536,1488.888888888889,-0.14,-0.175
537,1491.6666666666667,-0.155,-0.175
538,1494.4444444444446,-0.14,-0.16
539,1497.2222222222222,-0.125,-0.16
540,1500.0,-0.13,-0.175
541,1502.7777777777778,-0.135,-0.185
542,1505.5555555555554,-0.145,-0.195
543,1508.3333333333333,-0.155,-0.185
544,1511.111111111111,-0.145,-0.19
545,1513.888888888889,-0.13,-0.18
546,1516.6666666666665,-0.125,-0.185
547,1519.4444444444443,-0.135,-0.205
548,1522.2222222222222,-0.135,-0.215
549,1525.0,-0.135,-0.2
550,1527.7777777777776,-0.125,-0.165
551,1530.5555555555554,-0.11,-0.16
552,1533.3333333333335,-0.11,-0.16
553,1536.1111111111113,-0.095,-0.155
554,1538.888888888889,-0.115,-0.165
555,1541.6666666666667,-0.115,-0.165
556,1544.4444444444446,-0.11,-0.18
557,1547.2222222222222,-0.095,-0.185
558,1550.0,-0.105,-0.18
559,1552.7777777777778,-0.115,-0.165
560,1555.5555555555557,-0.13,-0.16
561,1558.3333333333333,-0.135,-0.18
562,1561.111111111111,-0.125,-0.185
563,1563.888888888889,-0.13,-0.205
564,1566.6666666666667,-0.125,-0.205
565,1569.4444444444443,-0.14,-0.205
566,1572.2222222222222,-0.15,-0.21
567,1575.0,-0.15,-0.205
568,1577.7777777777778,-0.145,-0.195
569,1580.5555555555554,-0.135,-0.205
570,1583.3333333333333,-0.135,-0.23
571,1586.111111111111,-0.155,-0.245
572,1588.8888888888887,-0.16,-0.245
573,1591.6666666666665,-0.175,-0.235
574,1594.4444444444446,-0.155,-0.205
575,1597.2222222222224,-0.15,-0.195
576,1600.0,-0.155,-0.195
577,1602.7777777777778,-0.16,-0.2
578,1605.5555555555557,-0.175,-0.215
579,1608.3333333333335,-0.175,-0.195
580,1611.111111111111,-0.16,-0.175
581,1613.888888888889,-0.16,-0.18
582,1616.6666666666667,-0.16,-0.17
583,1619.4444444444446,-0.16,-0.18
584,1622.2222222222222,-0.16,-0.185
585,1625.0,-0.17,-0.185
586,1627.7777777777778,-0.155,-0.17
587,1630.5555555555554,-0.145,-0.175
588,1633.3333333333333,-0.155,-0.19
589,1636.111111111111,-0.175,-0.195
590,1638.888888888889,-0.17,-0.21
591,1641.6666666666665,-0.17,-0.21
592,1644.4444444444443,-0.155,-0.205
593,1647.2222222222222,-0.14,-0.195
594,1650.0,-0.145,-0.205
595,1652.7777777777776,-0.16,-0.225
596,1655.5555555555554,-0.18,-0.23
597,1658.3333333333335,-0.18,-0.235
598,1661.1111111111113,-0.175,-0.22
599,1663.888888888889,-0.155,-0.21
600,1666.6666666666667,-0.155,-0.215
601,1669.4444444444446,-0.155,-0.225
602,1672.2222222222222,-0.155,-0.23
603,1675.0,-0.165,-0.215
604,1677.7777777777778,-0.16,-0.2
605,1680.5555555555557,-0.145,-0.2
606,1683.3333333333333,-0.145,-0.195
607,1686.111111111111,-0.155,-0.205
608,1688.888888888889,-0.15,-0.21
609,1691.6666666666667,-0.155,-0.185
610,1694.4444444444443,-0.14,-0.18
611,1697.2222222222222,-0.135,-0.18
612,1700.0,-0.135,-0.2
613,1702.7777777777778,-0.15,-0.22
614,1705.5555555555554,-0.16,-0.23
615,1708.3333333333333,-0.175,-0.2
616,1711.111111111111,-0.165,-0.19
617,1713.8888888888887,-0.145,-0.17
618,1716.6666666666665,-0.14,-0.17
619,1719.4444444444446,-0.155,-0.2
620,1722.2222222222224,-0.175,-0.21
621,1725.0,-0.19,-0.2
622,1727.7777777777778,-0.175,-0.195
623,1730.5555555555557,-0.165,-0.195
624,1733.3333333333335,-0.16,-0.2
625,1736.111111111111,-0.18,-0.2
626,1738.888888888889,-0.195,-0.195
627,1741.6666666666667,-0.2,-0.18
628,1744.4444444444446,-0.185,-0.165
629,1747.2222222222222,-0.175,-0.155
630,1750.0,-0.18,-0.17
631,1752.7777777777778,-0.185,-0.195
632,1755.5555555555554,-0.19,-0.215
633,1758.3333333333333,-0.19,-0.2
634,1761.111111111111,-0.18,-0.21
635,1763.888888888889,-0.18,-0.175
636,1766.6666666666665,-0.17,-0.17
637,1769.4444444444443,-0.165,-0.175
638,1772.2222222222222,-0.18,-0.18
639,1775.0,-0.19,-0.17
640,1777.7777777777776,-0.17,-0.145
641,1780.5555555555554,-0.16,-0.135
642,1783.3333333333335,-0.165,-0.145
643,1786.1111111111113,-0.175,-0.155
644,1788.888888888889,-0.175,-0.18
645,1791.6666666666667,-0.175,-0.185
646,1794.4444444444446,-0.17,-0.175
647,1797.2222222222222,-0.17,-0.165
648,1800.0,-0.17,-0.17
649,1802.7777777777778,-0.175,-0.19
650,1805.5555555555557,-0.18,-0.195
651,1808.3333333333333,-0.19,-0.19
652,1811.111111111111,-0.17,-0.19
653,1813.888888888889,-0.16,-0.18
654,1816.6666666666667,-0.155,-0.2
655,1819.4444444444443,-0.16,-0.215
656,1822.2222222222222,-0.17,-0.22
657,1825.0,-0.165,-0.21
658,1827.7777777777778,-0.15,-0.2
659,1830.5555555555554,-0.135,-0.2
660,1833.3333333333333,-0.145,-0.2
661,1836.111111111111,-0.17,-0.205
662,1838.8888888888887,-0.185,-0.235
663,1841.6666666666665,-0.185,-0.235
664,1844.4444444444446,-0.165,-0.22
665,1847.2222222222224,-0.17,-0.225
666,1850.0,-0.16,-0.22
667,1852.7777777777778,-0.17,-0.235
668,1855.5555555555557,-0.18,-0.225
669,1858.3333333333335,-0.195,-0.195
670,1861.111111111111,-0.18,-0.145
671,1863.888888888889,-0.14,-0.09
672,1866.6666666666667,-0.125,-0.11
673,1869.4444444444446,-0.105,-0.19
674,1872.2222222222222,-0.095,-0.33
675,1875.0,-0.075,-0.43
676,1877.7777777777778,-0.035,-0.5
677,1880.5555555555554,0.025,-0.545
678,1883.3333333333333,0.115,-0.61
679,1886.111111111111,0.22,-0.705
680,1888.888888888889,0.325,-0.815
681,1891.6666666666665,0.44,-0.885
682,1894.4444444444443,0.585,-0.905
683,1897.2222222222222,0.71,-0.845
684,1900.0,0.82,-0.78
685,1902.7777777777776,0.915,-0.705
686,1905.5555555555554,1.005,-0.62
687,1908.3333333333335,1.055,-0.49
688,1911.1111111111113,1.04,-0.355
689,1913.888888888889,0.935,-0.24
690,1916.6666666666667,0.76,-0.145
691,1919.4444444444446,0.555,-0.095
692,1922.2222222222222,0.33,-0.08
693,1925.0,0.135,-0.1
694,1927.7777777777778,0.0,-0.14
695,1930.5555555555557,-0.095,-0.175
696,1933.3333333333333,-0.155,-0.2
697,1936.111111111111,-0.195,-0.21
698,1938.888888888889,-0.19,-0.21
699,1941.6666666666667,-0.155,-0.205
700,1944.4444444444443,-0.115,-0.175
701,1947.2222222222222,-0.105,-0.17
702,1950.0,-0.105,-0.17
703,1952.7777777777778,-0.13,-0.175
704,1955.5555555555554,-0.145,-0.185
705,1958.3333333333333,-0.165,-0.19
706,1961.111111111111,-0.165,-0.175
707,1963.8888888888887,-0.16,-0.175
708,1966.6666666666665,-0.16,-0.17
709,1969.4444444444446,-0.17,-0.19
710,1972.2222222222224,-0.19,-0.215
711,1975.0,-0.19,-0.2
712,1977.7777777777778,-0.18,-0.215
713,1980.5555555555557,-0.17,-0.225
714,1983.3333333333335,-0.175,-0.235
715,1986.111111111111,-0.185,-0.26
716,1988.888888888889,-0.18,-0.29
717,1991.6666666666667,-0.19,-0.29
718,1994.4444444444446,-0.185,-0.275
719,1997.2222222222222,-0.175,-0.265
720,2000.0,-0.175,-0.265
721,2002.7777777777778,-0.17,-0.26
722,2005.5555555555554,-0.175,-0.27
723,2008.3333333333333,-0.185,-0.255
724,2011.111111111111,-0.18,-0.23
725,2013.888888888889,-0.155,-0.225
726,2016.6666666666665,-0.15,-0.22
727,2019.4444444444443,-0.16,-0.23
728,2022.2222222222222,-0.165,-0.235
729,2025.0,-0.17,-0.235
730,2027.7777777777776,-0.16,-0.225
731,2030.5555555555554,-0.145,-0.225
732,2033.3333333333333,-0.155,-0.235
733,2036.111111111111,-0.16,-0.24
734,2038.8888888888887,-0.17,-0.255
735,2041.6666666666665,-0.165,-0.245
736,2044.4444444444443,-0.16,-0.23
737,2047.222222222222,-0.15,-0.235
738,2050.0,-0.145,-0.235
739,2052.7777777777774,-0.145,-0.24
740,2055.555555555555,-0.15,-0.255
741,2058.333333333333,-0.155,-0.24
742,2061.111111111111,-0.145,-0.225
743,2063.888888888889,-0.14,-0.225
744,2066.666666666667,-0.135,-0.225
745,2069.444444444445,-0.145,-0.23
746,2072.2222222222226,-0.145,-0.235
747,2075.0,-0.15,-0.225
748,2077.777777777778,-0.135,-0.21
749,2080.5555555555557,-0.12,-0.205
750,2083.3333333333335,-0.125,-0.205
751,2086.1111111111113,-0.125,-0.225
752,2088.888888888889,-0.135,-0.23
753,2091.666666666667,-0.14,-0.215
754,2094.4444444444443,-0.125,-0.21
755,2097.222222222222,-0.115,-0.205
756,2100.0,-0.13,-0.205
757,2102.777777777778,-0.125,-0.225
758,2105.5555555555557,-0.135,-0.26
759,2108.3333333333335,-0.13,-0.255
760,2111.1111111111113,-0.125,-0.245
761,2113.888888888889,-0.105,-0.22
762,2116.6666666666665,-0.1,-0.225
763,2119.4444444444443,-0.1,-0.225
764,2122.222222222222,-0.09,-0.235
765,2125.0,-0.08,-0.235
766,2127.777777777778,-0.055,-0.235
767,2130.5555555555557,-0.04,-0.235
768,2133.3333333333335,-0.03,-0.245
769,2136.111111111111,-0.04,-0.24
770,2138.8888888888887,-0.045,-0.25
771,2141.6666666666665,-0.04,-0.24
772,2144.4444444444443,-0.025,-0.24
773,2147.222222222222,-0.02,-0.24
774,2150.0,-0.01,-0.225
775,2152.777777777778,-0.015,-0.23
776,2155.5555555555557,-0.025,-0.23
777,2158.333333333333,-0.035,-0.225
778,2161.111111111111,-0.025,-0.225
779,2163.8888888888887,-0.03,-0.205
780,2166.6666666666665,-0.04,-0.205
781,2169.4444444444443,-0.055,-0.21
782,2172.222222222222,-0.075,-0.21
783,2175.0,-0.085,-0.195
784,2177.7777777777774,-0.085,-0.175
785,2180.555555555555,-0.075,-0.165
786,2183.333333333333,-0.09,-0.17
787,2186.111111111111,-0.1,-0.18
788,2188.888888888889,-0.13,-0.185
789,2191.666666666667,-0.135,-0.17
790,2194.444444444445,-0.14,-0.14
791,2197.2222222222226,-0.14,-0.13
792,2200.0,-0.145,-0.135
793,2202.777777777778,-0.15,-0.15
794,2205.5555555555557,-0.165,-0.19
795,2208.3333333333335,-0.17,-0.205
796,2211.1111111111113,-0.165,-0.21
797,2213.888888888889,-0.155,-0.205
798,2216.666666666667,-0.17,-0.185
799,2219.4444444444443,-0.17,-0.18
800,2222.222222222222,-0.175,-0.18
801,2225.0,-0.175,-0.165
802,2227.777777777778,-0.17,-0.16
803,2230.5555555555557,-0.155,-0.145
804,2233.3333333333335,-0.16,-0.145
805,2236.1111111111113,-0.165,-0.16
806,2238.888888888889,-0.175,-0.165
807,2241.6666666666665,-0.17,-0.16
808,2244.4444444444443,-0.16,-0.15
809,2247.222222222222,-0.16,-0.145
810,2250.0,-0.17,-0.155
811,2252.777777777778,-0.17,-0.165
812,2255.5555555555557,-0.19,-0.18
813,2258.3333333333335,-0.185,-0.165
814,2261.111111111111,-0.19,-0.16
815,2263.8888888888887,-0.185,-0.15
816,2266.6666666666665,-0.19,-0.17
817,2269.4444444444443,-0.185,-0.18
818,2272.222222222222,-0.195,-0.195
819,2275.0,-0.2,-0.2
820,2277.777777777778,-0.195,-0.21
821,2280.5555555555557,-0.195,-0.2
822,2283.333333333333,-0.185,-0.205
823,2286.111111111111,-0.18,-0.215
824,2288.8888888888887,-0.18,-0.225
825,2291.6666666666665,-0.165,-0.215
826,2294.4444444444443,-0.17,-0.195
827,2297.222222222222,-0.16,-0.2
828,2300.0,-0.165,-0.185
829,2302.7777777777774,-0.16,-0.21
830,2305.555555555555,-0.16,-0.23
831,2308.333333333333,-0.16,-0.205
832,2311.111111111111,-0.15,-0.19
833,2313.888888888889,-0.14,-0.185
834,2316.666666666667,-0.145,-0.195
835,2319.444444444445,-0.145,-0.205
836,2322.2222222222226,-0.16,-0.205
837,2325.0,-0.175,-0.195
838,2327.777777777778,-0.165,-0.185
839,2330.5555555555557,-0.16,-0.18
840,2333.3333333333335,-0.165,-0.195
841,2336.1111111111113,-0.175,-0.205
842,2338.888888888889,-0.17,-0.255
843,2341.666666666667,-0.185,-0.245
844,2344.4444444444443,-0.175,-0.235
845,2347.222222222222,-0.17,-0.22
846,2350.0,-0.175,-0.22
847,2352.777777777778,-0.18,-0.22
848,2355.5555555555557,-0.195,-0.24
849,2358.3333333333335,-0.195,-0.235
850,2361.1111111111113,-0.185,-0.25
851,2363.888888888889,-0.18,-0.245
852,2366.6666666666665,-0.165,-0.245
853,2369.4444444444443,-0.18,-0.235
854,2372.222222222222,-0.19,-0.25
855,2375.0,-0.195,-0.235
856,2377.777777777778,-0.195,-0.22
857,2380.5555555555557,-0.185,-0.205
858,2383.3333333333335,-0.18,-0.2
859,2386.111111111111,-0.19,-0.2
860,2388.8888888888887,-0.195,-0.215
861,2391.6666666666665,-0.21,-0.2
862,2394.4444444444443,-0.195,-0.185
863,2397.222222222222,-0.19,-0.18
864,2400.0,-0.19,-0.18
865,2402.777777777778,-0.205,-0.18
866,2405.5555555555557,-0.19,-0.18
867,2408.333333333333,-0.21,-0.17
868,2411.111111111111,-0.19,-0.155
869,2413.8888888888887,-0.19,-0.15
870,2416.6666666666665,-0.195,-0.14
871,2419.4444444444443,-0.205,-0.14
872,2422.222222222222,-0.205,-0.155
873,2425.0,-0.215,-0.145
874,2427.7777777777774,-0.21,-0.135
875,2430.555555555555,-0.195,-0.13
876,2433.333333333333,-0.195,-0.14
877,2436.111111111111,-0.205,-0.135
878,2438.888888888889,-0.205,-0.145
879,2441.666666666667,-0.215,-0.14
880,2444.444444444445,-0.22,-0.115
881,2447.2222222222226,-0.21,-0.1
882,2450.0,-0.22,-0.105
883,2452.777777777778,-0.22,-0.135
884,2455.5555555555557,-0.23,-0.16
885,2458.3333333333335,-0.22,-0.155
886,2461.1111111111113,-0.2,-0.145
887,2463.888888888889,-0.185,-0.135
888,2466.666666666667,-0.165,-0.135
889,2469.4444444444443,-0.15,-0.15
890,2472.222222222222,-0.14,-0.185
891,2475.0,-0.12,-0.255
892,2477.777777777778,-0.1,-0.335
893,2480.5555555555557,-0.085,-0.42
894,2483.3333333333335,-0.06,-0.475
895,2486.1111111111113,0.0,-0.54
896,2488.888888888889,0.075,-0.61
897,2491.6666666666665,0.165,-0.68
898,2494.4444444444443,0.27,-0.79
899,2497.222222222222,0.365,-0.88
900,2500.0,0.475,-0.955
901,2502.777777777778,0.6,-0.98
902,2505.5555555555557,0.69,-0.935
903,2508.3333333333335,0.77,-0.88
904,2511.111111111111,0.85,-0.8
905,2513.8888888888887,0.91,-0.7
906,2516.6666666666665,0.91,-0.555
907,2519.4444444444443,0.835,-0.435
908,2522.222222222222,0.725,-0.365
909,2525.0,0.59,-0.28
910,2527.777777777778,0.43,-0.245
911,2530.5555555555557,0.25,-0.245
912,2533.333333333333,0.1,-0.26
913,2536.111111111111,0.0,-0.275
914,2538.8888888888887,-0.065,-0.275
915,2541.6666666666665,-0.105,-0.245
916,2544.4444444444443,-0.12,-0.235
917,2547.222222222222,-0.115,-0.22
918,2550.0,-0.105,-0.205
919,2552.7777777777774,-0.11,-0.21
920,2555.555555555555,-0.135,-0.205
921,2558.333333333333,-0.155,-0.195
922,2561.111111111111,-0.165,-0.19
923,2563.888888888889,-0.17,-0.185
924,2566.666666666667,-0.165,-0.195
925,2569.444444444445,-0.18,-0.19
926,2572.2222222222226,-0.195,-0.19
927,2575.0,-0.2,-0.185
928,2577.777777777778,-0.2,-0.175
929,2580.5555555555557,-0.2,-0.18
930,2583.3333333333335,-0.21,-0.2
931,2586.1111111111113,-0.215,-0.205
932,2588.888888888889,-0.21,-0.2
933,2591.666666666667,-0.215,-0.19
934,2594.4444444444443,-0.215,-0.17
935,2597.222222222222,-0.21,-0.175
936,2600.0,-0.225,-0.17
937,2602.777777777778,-0.225,-0.17
938,2605.5555555555557,-0.24,-0.175
939,2608.3333333333335,-0.24,-0.165
940,2611.1111111111113,-0.245,-0.16
941,2613.888888888889,-0.24,-0.135
942,2616.6666666666665,-0.24,-0.145
943,2619.4444444444443,-0.25,-0.16
944,2622.222222222222,-0.26,-0.16
945,2625.0,-0.26,-0.16
946,2627.777777777778,-0.25,-0.16
947,2630.5555555555557,-0.255,-0.155
948,2633.3333333333335,-0.255,-0.165
949,2636.111111111111,-0.265,-0.18
950,2638.8888888888887,-0.275,-0.19
951,2641.6666666666665,-0.29,-0.195
952,2644.4444444444443,-0.285,-0.175
953,2647.222222222222,-0.285,-0.175
954,2650.0,-0.295,-0.17
955,2652.777777777778,-0.31,-0.185
956,2655.5555555555557,-0.315,-0.205
957,2658.333333333333,-0.3,-0.21
958,2661.111111111111,-0.265,-0.205
959,2663.8888888888887,-0.25,-0.2
960,2666.6666666666665,-0.235,-0.215
961,2669.4444444444443,-0.235,-0.215
962,2672.222222222222,-0.235,-0.23
963,2675.0,-0.225,-0.21
964,2677.7777777777774,-0.205,-0.22
965,2680.555555555555,-0.18,-0.205
966,2683.333333333333,-0.17,-0.22
967,2686.111111111111,-0.17,-0.22
968,2688.888888888889,-0.175,-0.23
969,2691.666666666667,-0.18,-0.23
970,2694.444444444445,-0.165,-0.235
971,2697.2222222222226,-0.145,-0.245
972,2700.0,-0.15,-0.26
973,2702.777777777778,-0.145,-0.275
974,2705.5555555555557,-0.135,-0.27
975,2708.3333333333335,-0.14,-0.28
976,2711.1111111111113,-0.14,-0.245
977,2713.888888888889,-0.135,-0.255
978,2716.666666666667,-0.125,-0.26
979,2719.4444444444443,-0.125,-0.26
980,2722.222222222222,-0.12,-0.265
981,2725.0,-0.115,-0.255
982,2727.777777777778,-0.115,-0.26
983,2730.5555555555557,-0.105,-0.255
984,2733.3333333333335,-0.1,-0.25
985,2736.1111111111113,-0.105,-0.27
986,2738.888888888889,-0.105,-0.27
987,2741.6666666666665,-0.11,-0.265
988,2744.4444444444443,-0.1,-0.245
989,2747.222222222222,-0.095,-0.255
990,2750.0,-0.085,-0.275
991,2752.777777777778,-0.1,-0.265
992,2755.5555555555557,-0.1,-0.275
993,2758.3333333333335,-0.105,-0.255
994,2761.111111111111,-0.095,-0.26
995,2763.8888888888887,-0.09,-0.25
996,2766.6666666666665,-0.095,-0.26
997,2769.4444444444443,-0.105,-0.245
998,2772.222222222222,-0.115,-0.255
999,2775.0,-0.125,-0.25
1000,2777.777777777778,-0.12,-0.24
1001,2780.5555555555557,-0.12,-0.21
1002,2783.333333333333,-0.14,-0.21
1003,2786.111111111111,-0.15,-0.21
1004,2788.8888888888887,-0.175,-0.2
1005,2791.6666666666665,-0.185,-0.19
1006,2794.4444444444443,-0.185,-0.18
1007,2797.222222222222,-0.19,-0.19
1008,2800.0,-0.21,-0.19
1009,2802.7777777777774,-0.22,-0.205
1010,2805.555555555555,-0.23,-0.195
1011,2808.333333333333,-0.23,-0.2
1012,2811.111111111111,-0.24,-0.185
1013,2813.888888888889,-0.255,-0.2
1014,2816.666666666667,-0.26,-0.21
1015,2819.444444444445,-0.285,-0.205
1016,2822.2222222222226,-0.3,-0.21
1017,2825.0,-0.29,-0.215
1018,2827.777777777778,-0.28,-0.23
1019,2830.5555555555557,-0.28,-0.23
1020,2833.3333333333335,-0.265,-0.225
1021,2836.1111111111113,-0.285,-0.23
1022,2838.888888888889,-0.26,-0.215
1023,2841.666666666667,-0.225,-0.2
1024,2844.4444444444443,-0.2,-0.2
1025,2847.222222222222,-0.18,-0.2
1026,2850.0,-0.165,-0.2
1027,2852.777777777778,-0.16,-0.2
1028,2855.5555555555557,-0.17,-0.18
1029,2858.3333333333335,-0.16,-0.165
1030,2861.1111111111113,-0.155,-0.17
1031,2863.888888888889,-0.155,-0.17
1032,2866.6666666666665,-0.155,-0.175
1033,2869.4444444444443,-0.16,-0.19
1034,2872.222222222222,-0.16,-0.17
1035,2875.0,-0.15,-0.16
1036,2877.777777777778,-0.15,-0.15
1037,2880.5555555555557,-0.155,-0.155
1038,2883.3333333333335,-0.165,-0.165
1039,2886.111111111111,-0.175,-0.17
1040,2888.8888888888887,-0.18,-0.165
1041,2891.6666666666665,-0.16,-0.155
1042,2894.4444444444443,-0.16,-0.15
1043,2897.222222222222,-0.15,-0.16
1044,2900.0,-0.165,-0.18
1045,2902.777777777778,-0.165,-0.185
1046,2905.5555555555557,-0.165,-0.18
1047,2908.333333333333,-0.17,-0.18
1048,2911.111111111111,-0.165,-0.17
1049,2913.8888888888887,-0.17,-0.17
1050,2916.6666666666665,-0.18,-0.17
1051,2919.4444444444443,-0.18,-0.19
1052,2922.222222222222,-0.18,-0.175
1053,2925.0,-0.17,-0.16
1054,2927.7777777777774,-0.17,-0.155
1055,2930.555555555555,-0.185,-0.16
1056,2933.333333333333,-0.2,-0.17
1057,2936.111111111111,-0.22,-0.19
1058,2938.888888888889,-0.22,-0.185
1059,2941.666666666667,-0.22,-0.18
1060,2944.444444444445,-0.21,-0.17
1061,2947.2222222222226,-0.215,-0.17
1062,2950.0,-0.225,-0.17
1063,2952.777777777778,-0.24,-0.175
1064,2955.5555555555557,-0.245,-0.15
1065,2958.3333333333335,-0.235,-0.135
1066,2961.1111111111113,-0.23,-0.14
1067,2963.888888888889,-0.245,-0.16
1068,2966.666666666667,-0.265,-0.175
1069,2969.4444444444443,-0.28,-0.195
1070,2972.222222222222,-0.285,-0.205
1071,2975.0,-0.285,-0.205
1072,2977.777777777778,-0.28,-0.215
1073,2980.5555555555557,-0.295,-0.235
1074,2983.3333333333335,-0.305,-0.26
1075,2986.1111111111113,-0.305,-0.28
1076,2988.888888888889,-0.31,-0.27
1077,2991.6666666666665,-0.295,-0.255
1078,2994.4444444444443,-0.285,-0.24
1079,2997.222222222222,-0.275,-0.235
1080,3000.0,-0.265,-0.23
1081,3002.777777777778,-0.265,-0.23
1082,3005.5555555555557,-0.25,-0.215
1083,3008.3333333333335,-0.225,-0.19
1084,3011.111111111111,-0.195,-0.185
1085,3013.8888888888887,-0.19,-0.19
1086,3016.6666666666665,-0.195,-0.2
1087,3019.4444444444443,-0.2,-0.205
1088,3022.222222222222,-0.21,-0.195
1089,3025.0,-0.21,-0.165
1090,3027.777777777778,-0.2,-0.135
1091,3030.5555555555557,-0.2,-0.12
1092,3033.333333333333,-0.205,-0.12
1093,3036.111111111111,-0.215,-0.15
1094,3038.8888888888887,-0.215,-0.185
1095,3041.6666666666665,-0.195,-0.21
1096,3044.4444444444443,-0.2,-0.21
1097,3047.222222222222,-0.18,-0.225
1098,3050.0,-0.19,-0.23
1099,3052.7777777777774,-0.19,-0.235
1100,3055.555555555555,-0.195,-0.21
1101,3058.333333333333,-0.195,-0.2
1102,3061.111111111111,-0.195,-0.195
1103,3063.888888888889,-0.205,-0.19
1104,3066.666666666667,-0.2,-0.195
1105,3069.444444444445,-0.21,-0.205
1106,3072.2222222222226,-0.215,-0.185
1107,3075.0,-0.21,-0.18
1108,3077.777777777778,-0.205,-0.175
1109,3080.5555555555557,-0.205,-0.17
1110,3083.3333333333335,-0.21,-0.185
1111,3086.1111111111113,-0.225,-0.205
1112,3088.888888888889,-0.22,-0.185
1113,3091.666666666667,-0.215,-0.175
1114,3094.4444444444443,-0.205,-0.165
1115,3097.222222222222,-0.215,-0.17
1116,3100.0,-0.23,-0.18
1117,3102.777777777778,-0.23,-0.185
1118,3105.5555555555557,-0.23,-0.17
1119,3108.3333333333335,-0.23,-0.155
1120,3111.1111111111113,-0.23,-0.16
1121,3113.888888888889,-0.235,-0.15
1122,3116.6666666666665,-0.25,-0.16
1123,3119.4444444444443,-0.265,-0.175
1124,3122.222222222222,-0.26,-0.175
1125,3125.0,-0.255,-0.165
1126,3127.777777777778,-0.25,-0.17
1127,3130.5555555555557,-0.255,-0.185
1128,3133.3333333333335,-0.265,-0.195
1129,3136.111111111111,-0.275,-0.205
1130,3138.8888888888887,-0.285,-0.205
1131,3141.6666666666665,-0.275,-0.195
1132,3144.4444444444443,-0.27,-0.175
1133,3147.222222222222,-0.26,-0.175
1134,3150.0,-0.275,-0.175
1135,3152.777777777778,-0.28,-0.18
1136,3155.5555555555557,-0.275,-0.175
1137,3158.333333333333,-0.265,-0.175
1138,3161.111111111111,-0.25,-0.165
1139,3163.8888888888887,-0.24,-0.155
1140,3166.6666666666665,-0.23,-0.165
1141,3169.4444444444443,-0.22,-0.17
1142,3172.222222222222,-0.21,-0.16
1143,3175.0,-0.19,-0.185
1144,3177.7777777777774,-0.18,-0.2
1145,3180.555555555555,-0.175,-0.22
1146,3183.333333333333,-0.19,-0.24
1147,3186.111111111111,-0.18,-0.245
1148,3188.888888888889,-0.175,-0.245
1149,3191.666666666667,-0.175,-0.235
1150,3194.444444444445,-0.17,-0.235
1151,3197.2222222222226,-0.175,-0.23
1152,3200.0,-0.18,-0.24
1153,3202.777777777778,-0.185,-0.25
1154,3205.5555555555557,-0.19,-0.245
1155,3208.3333333333335,-0.18,-0.225
1156,3211.1111111111113,-0.175,-0.23
1157,3213.888888888889,-0.175,-0.23
1158,3216.666666666667,-0.175,-0.235
1159,3219.4444444444443,-0.2,-0.24
1160,3222.222222222222,-0.19,-0.235
1161,3225.0,-0.175,-0.22
1162,3227.777777777778,-0.17,-0.225
1163,3230.5555555555557,-0.175,-0.225
1164,3233.3333333333335,-0.185,-0.225
1165,3236.1111111111113,-0.18,-0.24
1166,3238.888888888889,-0.185,-0.23
1167,3241.6666666666665,-0.165,-0.23
1168,3244.4444444444443,-0.16,-0.215
1169,3247.222222222222,-0.17,-0.195
1170,3250.0,-0.175,-0.195
1171,3252.777777777778,-0.18,-0.195
1172,3255.5555555555557,-0.18,-0.175
1173,3258.3333333333335,-0.155,-0.16
1174,3261.111111111111,-0.135,-0.175
1175,3263.8888888888887,-0.125,-0.23
1176,3266.6666666666665,-0.1,-0.32
1177,3269.4444444444443,-0.095,-0.41
1178,3272.222222222222,-0.08,-0.47
1179,3275.0,-0.035,-0.535
1180,3277.777777777778,0.035,-0.585
1181,3280.5555555555557,0.135,-0.645
1182,3283.333333333333,0.24,-0.74
1183,3286.111111111111,0.34,-0.835
1184,3288.8888888888887,0.465,-0.88
1185,3291.6666666666665,0.61,-0.86
1186,3294.4444444444443,0.735,-0.8
1187,3297.222222222222,0.845,-0.715
1188,3300.0,0.94,-0.655
1189,3302.7777777777774,1.01,-0.58
1190,3305.555555555555,1.025,-0.45
1191,3308.333333333333,0.94,-0.325
1192,3311.111111111111,0.775,-0.21
1193,3313.888888888889,0.55,-0.12
1194,3316.666666666667,0.31,-0.08
1195,3319.444444444445,0.1,-0.075
1196,3322.2222222222226,-0.04,-0.105
1197,3325.0,-0.135,-0.135
1198,3327.777777777778,-0.21,-0.175
1199,3330.5555555555557,-0.28,-0.205
1200,3333.3333333333335,-0.315,-0.22
1201,3336.1111111111113,-0.305,-0.225
1202,3338.888888888889,-0.27,-0.205
1203,3341.666666666667,-0.235,-0.195
1204,3344.4444444444443,-0.23,-0.18
1205,3347.222222222222,-0.23,-0.185
1206,3350.0,-0.235,-0.205
1207,3352.777777777778,-0.245,-0.22
1208,3355.5555555555557,-0.245,-0.2
1209,3358.3333333333335,-0.245,-0.19
1210,3361.1111111111113,-0.24,-0.205
1211,3363.888888888889,-0.25,-0.21
1212,3366.6666666666665,-0.25,-0.235
1213,3369.4444444444443,-0.25,-0.24
1214,3372.222222222222,-0.245,-0.245
1215,3375.0,-0.235,-0.23
1216,3377.777777777778,-0.225,-0.215
1217,3380.5555555555557,-0.22,-0.225
1218,3383.3333333333335,-0.23,-0.24
1219,3386.111111111111,-0.24,-0.245
1220,3388.8888888888887,-0.25,-0.25
1221,3391.6666666666665,-0.245,-0.235
1222,3394.4444444444443,-0.235,-0.225
1223,3397.222222222222,-0.235,-0.225
1224,3400.0,-0.25,-0.23
1225,3402.777777777778,-0.25,-0.235
1226,3405.5555555555557,-0.25,-0.23
1227,3408.333333333333,-0.235,-0.225
1228,3411.111111111111,-0.24,-0.215
1229,3413.8888888888887,-0.235,-0.21
1230,3416.6666666666665,-0.23,-0.24
1231,3419.4444444444443,-0.245,-0.245
1232,3422.222222222222,-0.25,-0.235
1233,3425.0,-0.235,-0.245
1234,3427.7777777777774,-0.235,-0.235
1235,3430.555555555555,-0.235,-0.245
1236,3433.333333333333,-0.23,-0.25
1237,3436.111111111111,-0.235,-0.255
1238,3438.888888888889,-0.235,-0.255
1239,3441.666666666667,-0.22,-0.26
1240,3444.444444444445,-0.215,-0.255
1241,3447.2222222222226,-0.215,-0.24
1242,3450.0,-0.225,-0.255
1243,3452.777777777778,-0.23,-0.265
1244,3455.5555555555557,-0.225,-0.275
1245,3458.3333333333335,-0.215,-0.26
1246,3461.1111111111113,-0.21,-0.26
1247,3463.888888888889,-0.205,-0.26
1248,3466.666666666667,-0.21,-0.255
1249,3469.4444444444443,-0.215,-0.26
1250,3472.222222222222,-0.21,-0.25
1251,3475.0,-0.195,-0.235
1252,3477.777777777778,-0.175,-0.225
1253,3480.5555555555557,-0.17,-0.22
1254,3483.3333333333335,-0.175,-0.22
1255,3486.1111111111113,-0.17,-0.225
1256,3488.888888888889,-0.185,-0.21
1257,3491.6666666666665,-0.155,-0.2
1258,3494.4444444444443,-0.155,-0.2
1259,3497.222222222222,-0.155,-0.21
1260,3500.0,-0.155,-0.22
1261,3502.777777777778,-0.15,-0.235
1262,3505.5555555555557,-0.14,-0.225
1263,3508.3333333333335,-0.135,-0.22
1264,3511.111111111111,-0.135,-0.215
1265,3513.8888888888887,-0.13,-0.22
1266,3516.6666666666665,-0.14,-0.24
1267,3519.4444444444443,-0.135,-0.255
1268,3522.222222222222,-0.135,-0.26
1269,3525.0,-0.13,-0.25
1270,3527.777777777778,-0.13,-0.24
1271,3530.5555555555557,-0.13,-0.235
1272,3533.333333333333,-0.135,-0.245
1273,3536.111111111111,-0.13,-0.25
1274,3538.8888888888887,-0.115,-0.24
1275,3541.6666666666665,-0.09,-0.225
1276,3544.4444444444443,-0.07,-0.24
1277,3547.222222222222,-0.065,-0.255
1278,3550.0,-0.065,-0.27
1279,3552.7777777777774,-0.08,-0.29
1280,3555.555555555555,-0.085,-0.295
1281,3558.333333333333,-0.065,-0.305
1282,3561.111111111111,-0.065,-0.315
1283,3563.888888888889,-0.065,-0.315
1284,3566.666666666667,-0.08,-0.315
1285,3569.444444444445,-0.08,-0.33
1286,3572.2222222222226,-0.08,-0.31
1287,3575.0,-0.085,-0.31
1288,3577.777777777778,-0.075,-0.305
1289,3580.5555555555557,-0.085,-0.3
1290,3583.3333333333335,-0.105,-0.295
1291,3586.1111111111113,-0.12,-0.295
1292,3588.888888888889,-0.13,-0.29
1293,3591.666666666667,-0.12,-0.27
1294,3594.4444444444443,-0.125,-0.275
1295,3597.222222222222,-0.135,-0.25
1296,3600.0,-0.14,-0.245
1297,3602.777777777778,-0.155,-0.27
1298,3605.5555555555557,-0.165,-0.27
1299,3608.3333333333335,-0.17,-0.255
1300,3611.1111111111113,-0.17,-0.265
1301,3613.888888888889,-0.165,-0.265
1302,3616.6666666666665,-0.175,-0.27
1303,3619.4444444444443,-0.19,-0.275
1304,3622.222222222222,-0.205,-0.245
1305,3625.0,-0.205,-0.23
1306,3627.777777777778,-0.19,-0.23
1307,3630.5555555555557,-0.205,-0.225
1308,3633.3333333333335,-0.205,-0.23
1309,3636.111111111111,-0.21,-0.23
1310,3638.8888888888887,-0.21,-0.235
1311,3641.6666666666665,-0.195,-0.21
1312,3644.4444444444443,-0.195,-0.185
1313,3647.222222222222,-0.195,-0.18
1314,3650.0,-0.2,-0.17
1315,3652.777777777778,-0.22,-0.18
1316,3655.5555555555557,-0.235,-0.175
1317,3658.333333333333,-0.215,-0.165
1318,3661.111111111111,-0.19,-0.175
1319,3663.8888888888887,-0.18,-0.18
1320,3666.6666666666665,-0.18,-0.18
1321,3669.4444444444443,-0.195,-0.185
1322,3672.222222222222,-0.2,-0.175
1323,3675.0,-0.19,-0.165
1324,3677.7777777777774,-0.17,-0.155
1325,3680.555555555555,-0.16,-0.175
1326,3683.333333333333,-0.165,-0.185
1327,3686.111111111111,-0.18,-0.2
1328,3688.888888888889,-0.175,-0.175
1329,3691.666666666667,-0.16,-0.175
1330,3694.444444444445,-0.16,-0.16
1331,3697.2222222222226,-0.165,-0.17
1332,3700.0,-0.175,-0.19
1333,3702.777777777778,-0.195,-0.19
1334,3705.5555555555557,-0.2,-0.18
1335,3708.3333333333335,-0.2,-0.165
1336,3711.1111111111113,-0.195,-0.145
1337,3713.888888888889,-0.2,-0.15
1338,3716.666666666667,-0.205,-0.16
1339,3719.4444444444443,-0.225,-0.17
1340,3722.222222222222,-0.23,-0.15
1341,3725.0,-0.22,-0.14
1342,3727.777777777778,-0.19,-0.135
1343,3730.5555555555557,-0.18,-0.155
1344,3733.3333333333335,-0.185,-0.17
1345,3736.1111111111113,-0.19,-0.19
1346,3738.888888888889,-0.2,-0.19
1347,3741.6666666666665,-0.19,-0.195
1348,3744.4444444444443,-0.18,-0.185
1349,3747.222222222222,-0.18,-0.2
1350,3750.0,-0.185,-0.21
1351,3752.777777777778,-0.205,-0.235
1352,3755.5555555555557,-0.21,-0.225
1353,3758.3333333333335,-0.205,-0.22
1354,3761.111111111111,-0.21,-0.225
1355,3763.8888888888887,-0.215,-0.235
1356,3766.6666666666665,-0.22,-0.26
1357,3769.4444444444443,-0.24,-0.27
1358,3772.222222222222,-0.245,-0.265
1359,3775.0,-0.24,-0.255
1360,3777.777777777778,-0.22,-0.25
1361,3780.5555555555557,-0.22,-0.25
1362,3783.333333333333,-0.215,-0.26
1363,3786.111111111111,-0.225,-0.26
1364,3788.8888888888887,-0.23,-0.245
1365,3791.6666666666665,-0.225,-0.23
1366,3794.4444444444443,-0.225,-0.225
1367,3797.222222222222,-0.22,-0.22
1368,3800.0,-0.225,-0.22
1369,3802.7777777777774,-0.24,-0.245
1370,3805.555555555555,-0.245,-0.24
1371,3808.333333333333,-0.225,-0.225
1372,3811.111111111111,-0.22,-0.21
1373,3813.888888888889,-0.215,-0.225
1374,3816.666666666667,-0.21,-0.22
1375,3819.444444444445,-0.215,-0.23
1376,3822.2222222222226,-0.235,-0.22
1377,3825.0,-0.215,-0.205
1378,3827.777777777778,-0.215,-0.2
1379,3830.5555555555557,-0.21,-0.195
1380,3833.3333333333335,-0.215,-0.2
1381,3836.1111111111113,-0.215,-0.2
1382,3838.888888888889,-0.22,-0.195
1383,3841.666666666667,-0.215,-0.19
1384,3844.4444444444443,-0.205,-0.18
1385,3847.222222222222,-0.19,-0.19
1386,3850.0,-0.195,-0.19
1387,3852.777777777778,-0.19,-0.2
1388,3855.5555555555557,-0.205,-0.195
1389,3858.3333333333335,-0.185,-0.185
1390,3861.1111111111113,-0.18,-0.185
1391,3863.888888888889,-0.185,-0.18
1392,3866.6666666666665,-0.19,-0.2
1393,3869.4444444444443,-0.195,-0.2
1394,3872.222222222222,-0.205,-0.205
1395,3875.0,-0.215,-0.195
1396,3877.777777777778,-0.205,-0.195
1397,3880.5555555555557,-0.21,-0.185
1398,3883.3333333333335,-0.21,-0.19
1399,3886.111111111111,-0.225,-0.195
1400,3888.8888888888887,-0.215,-0.17
1401,3891.6666666666665,-0.205,-0.17
1402,3894.4444444444443,-0.205,-0.16
1403,3897.222222222222,-0.205,-0.155
1404,3900.0,-0.22,-0.14
1405,3902.777777777778,-0.24,-0.145
1406,3905.5555555555557,-0.24,-0.125
1407,3908.333333333333,-0.215,-0.125
1408,3911.111111111111,-0.2,-0.14
1409,3913.8888888888887,-0.18,-0.215
1410,3916.6666666666665,-0.15,-0.32
1411,3919.4444444444443,-0.13,-0.425
1412,3922.222222222222,-0.08,-0.5
1413,3925.0,-0.005,-0.59
1414,3927.7777777777774,0.115,-0.655
1415,3930.555555555555,0.23,-0.76
1416,3933.333333333333,0.315,-0.875
1417,3936.111111111111,0.405,-0.95
1418,3938.888888888889,0.515,-0.98
1419,3941.666666666667,0.65,-0.93
1420,3944.444444444445,0.74,-0.88
1421,3947.2222222222226,0.81,-0.82
1422,3950.0,0.89,-0.745
1423,3952.777777777778,0.925,-0.625
1424,3955.5555555555557,0.885,-0.475
1425,3958.3333333333335,0.765,-0.345
1426,3961.1111111111113,0.64,-0.265
1427,3963.888888888889,0.46,-0.22
1428,3966.666666666667,0.255,-0.215
1429,3969.4444444444443,0.085,-0.245
1430,3972.222222222222,-0.025,-0.255
1431,3975.0,-0.085,-0.26
1432,3977.777777777778,-0.135,-0.23
1433,3980.5555555555557,-0.155,-0.22
1434,3983.3333333333335,-0.145,-0.225
1435,3986.1111111111113,-0.14,-0.225
1436,3988.888888888889,-0.13,-0.215
1437,3991.6666666666665,-0.12,-0.205
1438,3994.4444444444443,-0.13,-0.2
1439,3997.222222222222,-0.155,-0.2
1440,4000.0,-0.17,-0.205
1441,4002.7777777777783,-0.185,-0.21
1442,4005.5555555555557,-0.2,-0.2
1443,4008.333333333334,-0.215,-0.205
1444,4011.111111111111,-0.2,-0.19
1445,4013.888888888889,-0.205,-0.195
1446,4016.6666666666665,-0.205,-0.205
1447,4019.444444444445,-0.22,-0.205
1448,4022.222222222222,-0.225,-0.21
1449,4025.0000000000005,-0.225,-0.19
1450,4027.777777777778,-0.205,-0.175
1451,4030.555555555556,-0.215,-0.185
1452,4033.333333333333,-0.215,-0.195
1453,4036.1111111111113,-0.225,-0.205
1454,4038.8888888888887,-0.225,-0.19
1455,4041.666666666667,-0.225,-0.18
1456,4044.4444444444443,-0.215,-0.18
1457,4047.2222222222226,-0.215,-0.175
1458,4050.0,-0.225,-0.175
1459,4052.777777777778,-0.235,-0.19
1460,4055.555555555555,-0.25,-0.175
1461,4058.3333333333335,-0.24,-0.175
1462,4061.111111111111,-0.235,-0.17
1463,4063.888888888889,-0.23,-0.16
1464,4066.6666666666665,-0.235,-0.175
1465,4069.444444444445,-0.235,-0.17
1466,4072.222222222222,-0.25,-0.165
1467,4075.0,-0.25,-0.16
1468,4077.7777777777774,-0.255,-0.155
1469,4080.5555555555557,-0.25,-0.165
1470,4083.333333333333,-0.255,-0.16
1471,4086.1111111111113,-0.265,-0.175
1472,4088.8888888888887,-0.27,-0.16
1473,4091.666666666667,-0.265,-0.155
1474,4094.444444444444,-0.245,-0.145
1475,4097.222222222223,-0.245,-0.15
1476,4100.0,-0.24,-0.155
1477,4102.777777777778,-0.24,-0.17
1478,4105.555555555555,-0.24,-0.17
1479,4108.333333333333,-0.235,-0.185
1480,4111.11111111111,-0.225,-0.195
1481,4113.888888888889,-0.21,-0.195
1482,4116.666666666666,-0.22,-0.2
1483,4119.444444444444,-0.225,-0.215
1484,4122.222222222222,-0.22,-0.215
1485,4125.0,-0.2,-0.215
1486,4127.777777777778,-0.185,-0.21
1487,4130.555555555556,-0.165,-0.225
1488,4133.333333333334,-0.165,-0.25
1489,4136.111111111111,-0.17,-0.265
1490,4138.88888888889,-0.15,-0.245
1491,4141.666666666667,-0.145,-0.245
1492,4144.444444444445,-0.135,-0.235
1493,4147.222222222222,-0.135,-0.24
1494,4150.0,-0.125,-0.245
1495,4152.777777777777,-0.135,-0.265
1496,4155.555555555556,-0.135,-0.255
1497,4158.333333333333,-0.14,-0.245
1498,4161.111111111111,-0.125,-0.245
1499,4163.888888888889,-0.12,-0.24
1500,4166.666666666667,-0.13,-0.245
1501,4169.444444444444,-0.14,-0.275
1502,4172.222222222223,-0.15,-0.27
1503,4175.0,-0.14,-0.26
1504,4177.777777777778,-0.115,-0.245
1505,4180.555555555556,-0.105,-0.245
1506,4183.333333333334,-0.115,-0.255
1507,4186.111111111111,-0.115,-0.26
1508,4188.888888888889,-0.125,-0.26
1509,4191.666666666666,-0.115,-0.245
1510,4194.444444444444,-0.11,-0.235
1511,4197.222222222222,-0.125,-0.235
1512,4200.0,-0.14,-0.245
1513,4202.777777777777,-0.15,-0.24
1514,4205.555555555556,-0.155,-0.245
1515,4208.333333333333,-0.16,-0.23
1516,4211.111111111111,-0.17,-0.215
1517,4213.888888888889,-0.17,-0.21
1518,4216.666666666667,-0.185,-0.21
1519,4219.444444444444,-0.2,-0.215
1520,4222.222222222223,-0.22,-0.205
1521,4225.0,-0.225,-0.2
1522,4227.777777777778,-0.225,-0.19
1523,4230.555555555555,-0.235,-0.185
1524,4233.333333333333,-0.24,-0.2
1525,4236.11111111111,-0.255,-0.195
1526,4238.888888888889,-0.265,-0.19
1527,4241.666666666666,-0.275,-0.185
1528,4244.444444444444,-0.27,-0.175
1529,4247.222222222222,-0.27,-0.18
1530,4250.0,-0.275,-0.175
1531,4252.777777777778,-0.285,-0.175
1532,4255.555555555556,-0.29,-0.17
1533,4258.333333333334,-0.29,-0.165
1534,4261.111111111111,-0.28,-0.16
1535,4263.88888888889,-0.295,-0.165
1536,4266.666666666667,-0.295,-0.16
1537,4269.444444444445,-0.305,-0.16
1538,4272.222222222222,-0.305,-0.15
1539,4275.0,-0.31,-0.125
1540,4277.777777777777,-0.29,-0.115
1541,4280.555555555556,-0.275,-0.11
1542,4283.333333333333,-0.26,-0.115
1543,4286.111111111111,-0.265,-0.135
1544,4288.888888888889,-0.25,-0.135
1545,4291.666666666667,-0.225,-0.135
1546,4294.444444444444,-0.215,-0.135
1547,4297.222222222223,-0.2,-0.165
1548,4300.0,-0.19,-0.195
1549,4302.777777777778,-0.2,-0.19
1550,4305.555555555556,-0.19,-0.18
1551,4308.333333333334,-0.17,-0.175
1552,4311.111111111111,-0.155,-0.18
1553,4313.888888888889,-0.15,-0.205
1554,4316.666666666666,-0.155,-0.205
1555,4319.444444444444,-0.17,-0.215
1556,4322.222222222222,-0.165,-0.205
1557,4325.0,-0.155,-0.195
1558,4327.777777777777,-0.15,-0.195
1559,4330.555555555556,-0.155,-0.195
1560,4333.333333333333,-0.16,-0.205
1561,4336.111111111111,-0.175,-0.21
1562,4338.888888888889,-0.17,-0.22
1563,4341.666666666667,-0.165,-0.2
1564,4344.444444444444,-0.17,-0.19
1565,4347.222222222223,-0.175,-0.2
1566,4350.0,-0.165,-0.21
1567,4352.777777777778,-0.165,-0.21
1568,4355.555555555555,-0.18,-0.2
1569,4358.333333333333,-0.185,-0.19
1570,4361.11111111111,-0.17,-0.19
1571,4363.888888888889,-0.185,-0.195
1572,4366.666666666666,-0.19,-0.22
1573,4369.444444444444,-0.2,-0.225
1574,4372.222222222222,-0.205,-0.22
1575,4375.0,-0.205,-0.2
1576,4377.777777777778,-0.215,-0.2
1577,4380.555555555556,-0.21,-0.195
1578,4383.333333333334,-0.215,-0.2
1579,4386.111111111111,-0.22,-0.22
1580,4388.88888888889,-0.23,-0.21
1581,4391.666666666667,-0.225,-0.2
1582,4394.444444444445,-0.22,-0.18
1583,4397.222222222222,-0.22,-0.19
1584,4400.0,-0.225,-0.205
1585,4402.777777777777,-0.235,-0.21
1586,4405.555555555556,-0.25,-0.205
1587,4408.333333333333,-0.245,-0.185
1588,4411.111111111111,-0.24,-0.185
1589,4413.888888888889,-0.25,-0.185
1590,4416.666666666667,-0.26,-0.195
1591,4419.444444444444,-0.275,-0.205
1592,4422.222222222223,-0.29,-0.205
1593,4425.0,-0.29,-0.205
1594,4427.777777777778,-0.285,-0.195
1595,4430.555555555556,-0.29,-0.205
1596,4433.333333333334,-0.3,-0.21
1597,4436.111111111111,-0.305,-0.225
1598,4438.888888888889,-0.315,-0.215
1599,4441.666666666666,-0.31,-0.21
1600,4444.444444444444,-0.31,-0.19
1601,4447.222222222222,-0.3,-0.18
1602,4450.0,-0.32,-0.17
1603,4452.777777777777,-0.315,-0.17
1604,4455.555555555556,-0.32,-0.15
1605,4458.333333333333,-0.31,-0.135
1606,4461.111111111111,-0.285,-0.15
1607,4463.888888888889,-0.255,-0.225
1608,4466.666666666667,-0.21,-0.315
1609,4469.444444444444,-0.175,-0.4
1610,4472.222222222223,-0.135,-0.46
1611,4475.0,-0.075,-0.505
1612,4477.777777777778,0.01,-0.55
1613,4480.555555555555,0.09,-0.615
1614,4483.333333333333,0.16,-0.705
1615,4486.11111111111,0.23,-0.825
1616,4488.888888888889,0.315,-0.9
1617,4491.666666666666,0.42,-0.945
1618,4494.444444444444,0.525,-0.925
1619,4497.222222222222,0.6,-0.885
1620,4500.0,0.66,-0.83
1621,4502.777777777778,0.715,-0.75
1622,4505.555555555556,0.725,-0.61
1623,4508.333333333334,0.7,-0.455
1624,4511.111111111111,0.62,-0.32
1625,4513.88888888889,0.5,-0.255
1626,4516.666666666667,0.325,-0.235
1627,4519.444444444445,0.135,-0.255
1628,4522.222222222222,-0.02,-0.265
1629,4525.0,-0.095,-0.265
1630,4527.777777777777,-0.135,-0.24
1631,4530.555555555556,-0.175,-0.225
1632,4533.333333333333,-0.21,-0.22
1633,4536.111111111111,-0.22,-0.21
1634,4538.888888888889,-0.215,-0.185
1635,4541.666666666667,-0.205,-0.175
1636,4544.444444444444,-0.215,-0.18
1637,4547.222222222223,-0.225,-0.185
1638,4550.0,-0.25,-0.18
1639,4552.777777777778,-0.265,-0.185
1640,4555.555555555556,-0.275,-0.175
1641,4558.333333333334,-0.275,-0.17
1642,4561.111111111111,-0.28,-0.155
1643,4563.888888888889,-0.27,-0.16
1644,4566.666666666666,-0.285,-0.16
1645,4569.444444444444,-0.295,-0.17
1646,4572.222222222222,-0.3,-0.16
1647,4575.0,-0.3,-0.155
1648,4577.777777777777,-0.295,-0.15
1649,4580.555555555556,-0.3,-0.17
1650,4583.333333333333,-0.32,-0.175
1651,4586.111111111111,-0.32,-0.19
1652,4588.888888888889,-0.315,-0.185
1653,4591.666666666667,-0.3,-0.16
1654,4594.444444444444,-0.3,-0.165
1655,4597.222222222223,-0.31,-0.18
1656,4600.0,-0.31,-0.185
1657,4602.777777777778,-0.33,-0.195
1658,4605.555555555555,-0.32,-0.195
1659,4608.333333333333,-0.315,-0.175
1660,4611.11111111111,-0.315,-0.18
1661,4613.888888888889,-0.315,-0.195
1662,4616.666666666666,-0.32,-0.215
1663,4619.444444444444,-0.325,-0.235
1664,4622.222222222222,-0.315,-0.225
1665,4625.0,-0.32,-0.215
1666,4627.777777777778,-0.3,-0.22
1667,4630.555555555556,-0.29,-0.22
1668,4633.333333333334,-0.3,-0.245
1669,4636.111111111111,-0.31,-0.255
1670,4638.88888888889,-0.315,-0.24
1671,4641.666666666667,-0.3,-0.235
1672,4644.444444444445,-0.29,-0.24
1673,4647.222222222222,-0.3,-0.24
1674,4650.0,-0.295,-0.245
1675,4652.777777777777,-0.29,-0.255
1676,4655.555555555556,-0.28,-0.24
1677,4658.333333333333,-0.255,-0.245
1678,4661.111111111111,-0.23,-0.23
1679,4663.888888888889,-0.225,-0.24
1680,4666.666666666667,-0.235,-0.26
1681,4669.444444444444,-0.245,-0.27
1682,4672.222222222223,-0.235,-0.25
1683,4675.0,-0.22,-0.245
1684,4677.777777777778,-0.215,-0.245
1685,4680.555555555556,-0.215,-0.24
1686,4683.333333333334,-0.225,-0.24
1687,4686.111111111111,-0.225,-0.25
1688,4688.888888888889,-0.21,-0.23
1689,4691.666666666666,-0.2,-0.22
1690,4694.444444444444,-0.195,-0.225
1691,4697.222222222222,-0.19,-0.235
1692,4700.0,-0.195,-0.245
1693,4702.777777777777,-0.19,-0.26
1694,4705.555555555556,-0.195,-0.245
1695,4708.333333333333,-0.19,-0.22
1696,4711.111111111111,-0.17,-0.215
1697,4713.888888888889,-0.175,-0.225
1698,4716.666666666667,-0.165,-0.235
1699,4719.444444444444,-0.16,-0.245
1700,4722.222222222223,-0.15,-0.24
1701,4725.0,-0.13,-0.22
1702,4727.777777777778,-0.13,-0.215
1703,4730.555555555555,-0.135,-0.215
1704,4733.333333333333,-0.13,-0.22
1705,4736.11111111111,-0.135,-0.21
1706,4738.888888888889,-0.14,-0.2
1707,4741.666666666666,-0.125,-0.2
1708,4744.444444444444,-0.115,-0.185
1709,4747.222222222222,-0.12,-0.2
1710,4750.0,-0.135,-0.19
1711,4752.777777777778,-0.15,-0.2
1712,4755.555555555556,-0.16,-0.195
1713,4758.333333333334,-0.16,-0.19
1714,4761.111111111111,-0.165,-0.185
1715,4763.88888888889,-0.175,-0.175
1716,4766.666666666667,-0.2,-0.2
1717,4769.444444444445,-0.21,-0.205
1718,4772.222222222222,-0.225,-0.19
1719,4775.0,-0.215,-0.185
1720,4777.777777777777,-0.21,-0.185
1721,4780.555555555556,-0.215,-0.19
1722,4783.333333333333,-0.245,-0.205
1723,4786.111111111111,-0.26,-0.215
1724,4788.888888888889,-0.26,-0.21
1725,4791.666666666667,-0.275,-0.2
1726,4794.444444444444,-0.265,-0.2
1727,4797.222222222223,-0.275,-0.215
1728,4800.0,-0.285,-0.23
1729,4802.777777777778,-0.295,-0.25
1730,4805.555555555556,-0.3,-0.235
1731,4808.333333333334,-0.295,-0.22
1732,4811.111111111111,-0.285,-0.215
1733,4813.888888888889,-0.29,-0.225
1734,4816.666666666666,-0.29,-0.245
1735,4819.444444444444,-0.295,-0.26
1736,4822.222222222222,-0.285,-0.255
1737,4825.0,-0.28,-0.235
1738,4827.777777777777,-0.26,-0.2
1739,4830.555555555556,-0.27,-0.185
1740,4833.333333333333,-0.27,-0.195
1741,4836.111111111111,-0.285,-0.215
1742,4838.888888888889,-0.285,-0.21
1743,4841.666666666667,-0.275,-0.205
1744,4844.444444444444,-0.27,-0.2
1745,4847.222222222223,-0.275,-0.195
1746,4850.0,-0.285,-0.195
1747,4852.777777777778,-0.3,-0.215
1748,4855.555555555555,-0.3,-0.205
1749,4858.333333333333,-0.29,-0.195
1750,4861.11111111111,-0.275,-0.185
1751,4863.888888888889,-0.285,-0.185
1752,4866.666666666666,-0.29,-0.19
1753,4869.444444444444,-0.295,-0.195
1754,4872.222222222222,-0.285,-0.19
1755,4875.0,-0.27,-0.17
1756,4877.777777777778,-0.265,-0.16
1757,4880.555555555556,-0.275,-0.16
1758,4883.333333333334,-0.275,-0.155
1759,4886.111111111111,-0.28,-0.165
1760,4888.88888888889,-0.275,-0.15
1761,4891.666666666667,-0.275,-0.15
1762,4894.444444444445,-0.26,-0.15
1763,4897.222222222222,-0.26,-0.16
1764,4900.0,-0.275,-0.18
1765,4902.777777777777,-0.29,-0.185
1766,4905.555555555556,-0.275,-0.165
1767,4908.333333333333,-0.26,-0.145
1768,4911.111111111111,-0.255,-0.15
1769,4913.888888888889,-0.255,-0.15
1770,4916.666666666667,-0.265,-0.145
1771,4919.444444444444,-0.27,-0.145
1772,4922.222222222223,-0.26,-0.135
1773,4925.0,-0.27,-0.12
1774,4927.777777777778,-0.265,-0.11
1775,4930.555555555556,-0.26,-0.115
1776,4933.333333333334,-0.28,-0.125
1777,4936.111111111111,-0.295,-0.135
1778,4938.888888888889,-0.275,-0.13
1779,4941.666666666666,-0.265,-0.105
1780,4944.444444444444,-0.255,-0.105
1781,4947.222222222222,-0.26,-0.12
1782,4950.0,-0.28,-0.145
1783,4952.777777777777,-0.3,-0.14
1784,4955.555555555556,-0.295,-0.145
1785,4958.333333333333,-0.29,-0.135
1786,4961.111111111111,-0.28,-0.155
1787,4963.888888888889,-0.29,-0.155
1788,4966.666666666667,-0.295,-0.175
1789,4969.444444444444,-0.305,-0.205
1790,4972.222222222223,-0.295,-0.205
1791,4975.0,-0.295,-0.205
1792,4977.777777777778,-0.275,-0.195
1793,4980.555555555555,-0.285,-0.2
1794,4983.333333333333,-0.29,-0.225
1795,4986.11111111111,-0.295,-0.25
1796,4988.888888888889,-0.295,-0.245
1797,4991.666666666666,-0.28,-0.235
1798,4994.444444444444,-0.28,-0.22
1799,4997.222222222222,-0.28,-0.225
1800,5000.0,-0.28,-0.23
1801,5002.777777777778,-0.28,-0.25
1802,5005.555555555556,-0.285,-0.235
1803,5008.333333333334,-0.265,-0.22
1804,5011.111111111111,-0.255,-0.22
1805,5013.88888888889,-0.265,-0.225
1806,5016.666666666667,-0.275,-0.24
1807,5019.444444444445,-0.29,-0.245
1808,5022.222222222222,-0.305,-0.235
1809,5025.0,-0.285,-0.2
1810,5027.777777777777,-0.28,-0.185
1811,5030.555555555556,-0.28,-0.195
1812,5033.333333333333,-0.285,-0.21
1813,5036.111111111111,-0.29,-0.23
1814,5038.888888888889,-0.305,-0.235
1815,5041.666666666667,-0.29,-0.23
1816,5044.444444444444,-0.275,-0.225
1817,5047.222222222223,-0.275,-0.225
1818,5050.0,-0.28,-0.22
1819,5052.777777777778,-0.285,-0.23
1820,5055.555555555556,-0.29,-0.23
1821,5058.333333333334,-0.29,-0.22
1822,5061.111111111111,-0.27,-0.22
1823,5063.888888888889,-0.28,-0.225
1824,5066.666666666666,-0.275,-0.22
1825,5069.444444444444,-0.285,-0.22
1826,5072.222222222222,-0.29,-0.215
1827,5075.0,-0.275,-0.195
1828,5077.777777777777,-0.265,-0.18
1829,5080.555555555556,-0.275,-0.18
1830,5083.333333333333,-0.265,-0.175
1831,5086.111111111111,-0.27,-0.18
1832,5088.888888888889,-0.27,-0.175
1833,5091.666666666667,-0.265,-0.165
1834,5094.444444444444,-0.26,-0.175
1835,5097.222222222223,-0.27,-0.165
1836,5100.0,-0.27,-0.175
1837,5102.777777777778,-0.285,-0.175
1838,5105.555555555555,-0.295,-0.165
1839,5108.333333333333,-0.29,-0.16
1840,5111.11111111111,-0.29,-0.165
1841,5113.888888888889,-0.29,-0.15
1842,5116.666666666666,-0.3,-0.16
1843,5119.444444444444,-0.305,-0.165
1844,5122.222222222222,-0.31,-0.165
1845,5125.0,-0.31,-0.175
1846,5127.777777777778,-0.31,-0.165
1847,5130.555555555556,-0.31,-0.17
1848,5133.333333333334,-0.305,-0.18
1849,5136.111111111111,-0.315,-0.175
1850,5138.88888888889,-0.315,-0.17
1851,5141.666666666667,-0.315,-0.165
1852,5144.444444444445,-0.31,-0.16
1853,5147.222222222222,-0.31,-0.155
1854,5150.0,-0.32,-0.17
1855,5152.777777777777,-0.32,-0.19
1856,5155.555555555556,-0.325,-0.185
1857,5158.333333333333,-0.32,-0.16
1858,5161.111111111111,-0.315,-0.165
1859,5163.888888888889,-0.325,-0.175
1860,5166.666666666667,-0.32,-0.2
1861,5169.444444444444,-0.335,-0.21
1862,5172.222222222223,-0.32,-0.2
1863,5175.0,-0.3,-0.19
1864,5177.777777777778,-0.29,-0.185
1865,5180.555555555556,-0.28,-0.185
1866,5183.333333333334,-0.255,-0.2
1867,5186.111111111111,-0.27,-0.215
1868,5188.888888888889,-0.265,-0.22
1869,5191.666666666666,-0.265,-0.225
1870,5194.444444444444,-0.255,-0.235
1871,5197.222222222222,-0.27,-0.235
1872,5200.0,-0.27,-0.255
1873,5202.777777777777,-0.285,-0.27
1874,5205.555555555556,-0.28,-0.255
1875,5208.333333333333,-0.275,-0.25
1876,5211.111111111111,-0.27,-0.245
1877,5213.888888888889,-0.28,-0.25
1878,5216.666666666667,-0.285,-0.255
1879,5219.444444444444,-0.29,-0.265
1880,5222.222222222223,-0.3,-0.275
1881,5225.0,-0.3,-0.26
1882,5227.777777777778,-0.3,-0.255
1883,5230.555555555555,-0.295,-0.25
1884,5233.333333333333,-0.295,-0.265
1885,5236.11111111111,-0.3,-0.265
1886,5238.888888888889,-0.315,-0.25
1887,5241.666666666666,-0.305,-0.24
1888,5244.444444444444,-0.3,-0.23
1889,5247.222222222222,-0.285,-0.225
1890,5250.0,-0.29,-0.225
1891,5252.777777777778,-0.295,-0.235
1892,5255.555555555556,-0.31,-0.235
1893,5258.333333333334,-0.3,-0.23
1894,5261.111111111111,-0.29,-0.225
1895,5263.88888888889,-0.29,-0.225
1896,5266.666666666667,-0.295,-0.24
1897,5269.444444444445,-0.3,-0.23
1898,5272.222222222222,-0.3,-0.225
1899,5275.0,-0.3,-0.205
1900,5277.777777777777,-0.3,-0.195
1901,5280.555555555556,-0.31,-0.2
1902,5283.333333333333,-0.305,-0.21
1903,5286.111111111111,-0.315,-0.22
1904,5288.888888888889,-0.315,-0.21
1905,5291.666666666667,-0.315,-0.205
1906,5294.444444444444,-0.31,-0.195
1907,5297.222222222223,-0.3,-0.2
1908,5300.0,-0.305,-0.215
1909,5302.777777777778,-0.31,-0.215
1910,5305.555555555556,-0.31,-0.21
1911,5308.333333333334,-0.295,-0.19
1912,5311.111111111111,-0.295,-0.175
1913,5313.888888888889,-0.295,-0.18
1914,5316.666666666666,-0.295,-0.19
1915,5319.444444444444,-0.3,-0.19
1916,5322.222222222222,-0.29,-0.18
1917,5325.0,-0.285,-0.175
1918,5327.777777777777,-0.27,-0.165
1919,5330.555555555556,-0.275,-0.165
1920,5333.333333333333,-0.27,-0.17
1921,5336.111111111111,-0.28,-0.18
1922,5338.888888888889,-0.275,-0.18
1923,5341.666666666667,-0.27,-0.18
1924,5344.444444444444,-0.275,-0.155
1925,5347.222222222223,-0.285,-0.16
1926,5350.0,-0.275,-0.16
1927,5352.777777777778,-0.275,-0.18
1928,5355.555555555555,-0.27,-0.195
1929,5358.333333333333,-0.27,-0.205
1930,5361.11111111111,-0.265,-0.195
1931,5363.888888888889,-0.27,-0.19
1932,5366.666666666666,-0.265,-0.195
1933,5369.444444444444,-0.26,-0.195
1934,5372.222222222222,-0.255,-0.21
1935,5375.0,-0.23,-0.21
1936,5377.777777777778,-0.22,-0.22
1937,5380.555555555556,-0.225,-0.225
1938,5383.333333333334,-0.24,-0.24
1939,5386.111111111111,-0.245,-0.25
1940,5388.88888888889,-0.24,-0.245
1941,5391.666666666667,-0.245,-0.24
1942,5394.444444444445,-0.235,-0.24
1943,5397.222222222222,-0.23,-0.225
1944,5400.0,-0.225,-0.245
1945,5402.777777777777,-0.22,-0.26
1946,5405.555555555556,-0.225,-0.24
1947,5408.333333333333,-0.205,-0.215
1948,5411.111111111111,-0.2,-0.205
1949,5413.888888888889,-0.2,-0.205
1950,5416.666666666667,-0.19,-0.215
1951,5419.444444444444,-0.18,-0.25
1952,5422.222222222223,-0.14,-0.29
1953,5425.0,-0.125,-0.38
1954,5427.777777777778,-0.11,-0.47
1955,5430.555555555556,-0.08,-0.54
1956,5433.333333333334,-0.045,-0.625
1957,5436.111111111111,0.03,-0.69
1958,5438.888888888889,0.125,-0.775
1959,5441.666666666666,0.245,-0.855
1960,5444.444444444444,0.35,-0.95
1961,5447.222222222222,0.465,-0.985
1962,5450.0,0.565,-0.98
1963,5452.777777777777,0.66,-0.925
1964,5455.555555555556,0.74,-0.845
1965,5458.333333333333,0.82,-0.77
1966,5461.111111111111,0.885,-0.66
1967,5463.888888888889,0.875,-0.525
1968,5466.666666666667,0.75,-0.395
1969,5469.444444444444,0.58,-0.295
1970,5472.222222222223,0.37,-0.2
1971,5475.0,0.165,-0.16
1972,5477.777777777778,-0.005,-0.165
1973,5480.555555555555,-0.125,-0.225
1974,5483.333333333333,-0.205,-0.275
1975,5486.11111111111,-0.27,-0.295
1976,5488.888888888889,-0.29,-0.275
1977,5491.666666666666,-0.285,-0.24
1978,5494.444444444444,-0.245,-0.23
1979,5497.222222222222,-0.22,-0.225
1980,5500.0,-0.22,-0.225
1981,5502.777777777778,-0.23,-0.22
1982,5505.555555555556,-0.245,-0.205
1983,5508.333333333334,-0.245,-0.19
1984,5511.111111111111,-0.26,-0.18
1985,5513.88888888889,-0.26,-0.18
1986,5516.666666666667,-0.29,-0.19
1987,5519.444444444445,-0.285,-0.195
1988,5522.222222222222,-0.305,-0.185
1989,5525.0,-0.3,-0.17
1990,5527.777777777777,-0.3,-0.18
1991,5530.555555555556,-0.315,-0.175
1992,5533.333333333333,-0.335,-0.19
1993,5536.111111111111,-0.335,-0.19
1994,5538.888888888889,-0.35,-0.19
1995,5541.666666666667,-0.36,-0.175
1996,5544.444444444444,-0.355,-0.16
1997,5547.222222222223,-0.37,-0.145
1998,5550.0,-0.37,-0.165
1999,5552.777777777778,-0.36,-0.165
2000,5555.555555555556,-0.335,-0.155
2001,5558.333333333334,-0.3,-0.16
2002,5561.111111111111,-0.285,-0.16
2003,5563.888888888889,-0.28,-0.175
2004,5566.666666666666,-0.275,-0.19
2005,5569.444444444444,-0.285,-0.205
2006,5572.222222222222,-0.295,-0.21
2007,5575.0,-0.29,-0.235
2008,5577.777777777777,-0.285,-0.255
2009,5580.555555555556,-0.275,-0.285
2010,5583.333333333333,-0.285,-0.305
2011,5586.111111111111,-0.285,-0.32
2012,5588.888888888889,-0.28,-0.31
2013,5591.666666666667,-0.285,-0.295
2014,5594.444444444444,-0.275,-0.295
2015,5597.222222222223,-0.28,-0.29
2016,5600.0,-0.27,-0.29
2017,5602.777777777778,-0.265,-0.305
2018,5605.555555555555,-0.255,-0.305
2019,5608.333333333333,-0.25,-0.295
2020,5611.11111111111,-0.24,-0.29
2021,5613.888888888889,-0.235,-0.295
2022,5616.666666666666,-0.245,-0.315
2023,5619.444444444444,-0.25,-0.32
2024,5622.222222222222,-0.245,-0.295
2025,5625.0,-0.23,-0.295
2026,5627.777777777778,-0.205,-0.28
2027,5630.555555555556,-0.205,-0.29
2028,5633.333333333334,-0.2,-0.305
2029,5636.111111111111,-0.21,-0.315
2030,5638.88888888889,-0.205,-0.305
2031,5641.666666666667,-0.205,-0.3
2032,5644.444444444445,-0.2,-0.29
2033,5647.222222222222,-0.205,-0.295
2034,5650.0,-0.21,-0.295
2035,5652.777777777777,-0.205,-0.31
2036,5655.555555555556,-0.215,-0.3
2037,5658.333333333333,-0.205,-0.295
2038,5661.111111111111,-0.18,-0.285
2039,5663.888888888889,-0.175,-0.29
2040,5666.666666666667,-0.18,-0.285
2041,5669.444444444444,-0.18,-0.28
2042,5672.222222222223,-0.175,-0.275
2043,5675.0,-0.17,-0.265
2044,5677.777777777778,-0.165,-0.27
2045,5680.555555555556,-0.175,-0.29
2046,5683.333333333334,-0.18,-0.295
2047,5686.111111111111,-0.19,-0.31
2048,5688.888888888889,-0.18,-0.295
2049,5691.666666666666,-0.16,-0.285
2050,5694.444444444444,-0.155,-0.28
2051,5697.222222222222,-0.155,-0.29
2052,5700.0,-0.15,-0.295
2053,5702.777777777777,-0.15,-0.31
2054,5705.555555555556,-0.14,-0.315
2055,5708.333333333333,-0.135,-0.305
2056,5711.111111111111,-0.13,-0.295
2057,5713.888888888889,-0.125,-0.285
2058,5716.666666666667,-0.14,-0.29
2059,5719.444444444444,-0.15,-0.295
2060,5722.222222222223,-0.155,-0.275
2061,5725.0,-0.15,-0.27
2062,5727.777777777778,-0.155,-0.25
2063,5730.555555555555,-0.155,-0.25
2064,5733.333333333333,-0.165,-0.24
2065,5736.11111111111,-0.17,-0.24
2066,5738.888888888889,-0.165,-0.23
2067,5741.666666666666,-0.14,-0.235
2068,5744.444444444444,-0.14,-0.26
2069,5747.222222222222,-0.14,-0.28
2070,5750.0,-0.15,-0.3
2071,5752.777777777778,-0.17,-0.315
2072,5755.555555555556,-0.16,-0.31
2073,5758.333333333334,-0.175,-0.285
2074,5761.111111111111,-0.17,-0.28
2075,5763.88888888889,-0.175,-0.28
2076,5766.666666666667,-0.19,-0.295
2077,5769.444444444445,-0.205,-0.295
2078,5772.222222222222,-0.22,-0.285
2079,5775.0,-0.21,-0.28
2080,5777.777777777777,-0.2,-0.27
2081,5780.555555555556,-0.2,-0.27
2082,5783.333333333333,-0.21,-0.28
2083,5786.111111111111,-0.215,-0.27
2084,5788.888888888889,-0.22,-0.265
2085,5791.666666666667,-0.21,-0.24
2086,5794.444444444444,-0.205,-0.235
2087,5797.222222222223,-0.2,-0.225
2088,5800.0,-0.215,-0.245
2089,5802.777777777778,-0.21,-0.24
2090,5805.555555555556,-0.21,-0.225
2091,5808.333333333334,-0.2,-0.205
2092,5811.111111111111,-0.2,-0.21
2093,5813.888888888889,-0.205,-0.21
2094,5816.666666666666,-0.215,-0.215
2095,5819.444444444444,-0.22,-0.22
2096,5822.222222222222,-0.225,-0.215
2097,5825.0,-0.225,-0.195
2098,5827.777777777777,-0.215,-0.19
2099,5830.555555555556,-0.225,-0.2
2100,5833.333333333333,-0.23,-0.195
2101,5836.111111111111,-0.245,-0.19
2102,5838.888888888889,-0.235,-0.17
2103,5841.666666666667,-0.225,-0.16
2104,5844.444444444444,-0.225,-0.16
2105,5847.222222222223,-0.23,-0.175
2106,5850.0,-0.23,-0.195
2107,5852.777777777778,-0.23,-0.19
2108,5855.555555555555,-0.22,-0.175
2109,5858.333333333333,-0.215,-0.165
2110,5861.11111111111,-0.205,-0.155
2111,5863.888888888889,-0.21,-0.165
2112,5866.666666666666,-0.22,-0.175
2113,5869.444444444444,-0.23,-0.195
2114,5872.222222222222,-0.245,-0.2
2115,5875.0,-0.235,-0.2
2116,5877.777777777778,-0.24,-0.2
2117,5880.555555555556,-0.255,-0.19
2118,5883.333333333334,-0.265,-0.19
2119,5886.111111111111,-0.28,-0.195
2120,5888.88888888889,-0.285,-0.195
2121,5891.666666666667,-0.28,-0.195
2122,5894.444444444445,-0.275,-0.185
2123,5897.222222222222,-0.28,-0.19
2124,5900.0,-0.275,-0.205
2125,5902.777777777777,-0.275,-0.205
2126,5905.555555555556,-0.265,-0.205
2127,5908.333333333333,-0.255,-0.2
2128,5911.111111111111,-0.25,-0.195
2129,5913.888888888889,-0.255,-0.2
2130,5916.666666666667,-0.26,-0.22
2131,5919.444444444444,-0.265,-0.225
2132,5922.222222222223,-0.26,-0.24
2133,5925.0,-0.245,-0.24
2134,5927.777777777778,-0.25,-0.24
2135,5930.555555555556,-0.24,-0.23
2136,5933.333333333334,-0.245,-0.225
2137,5936.111111111111,-0.255,-0.215
2138,5938.888888888889,-0.265,-0.21
2139,5941.666666666666,-0.24,-0.22
2140,5944.444444444444,-0.24,-0.24
2141,5947.222222222222,-0.24,-0.245
2142,5950.0,-0.235,-0.25
2143,5952.777777777777,-0.24,-0.26
2144,5955.555555555556,-0.24,-0.245
2145,5958.333333333333,-0.245,-0.235
2146,5961.111111111111,-0.24,-0.24
2147,5963.888888888889,-0.245,-0.235
2148,5966.666666666667,-0.255,-0.245
2149,5969.444444444444,-0.26,-0.25
2150,5972.222222222223,-0.26,-0.225
2151,5975.0,-0.255,-0.22
2152,5977.777777777778,-0.245,-0.2
2153,5980.555555555555,-0.245,-0.195
2154,5983.333333333333,-0.24,-0.2
2155,5986.11111111111,-0.255,-0.2
2156,5988.888888888889,-0.265,-0.18
2157,5991.666666666666,-0.26,-0.16
2158,5994.444444444444,-0.265,-0.145
2159,5997.222222222222,-0.255,-0.15
2160,6000.0,-0.26,-0.15
2161,6002.777777777778,-0.26,-0.16
2162,6005.555555555556,-0.27,-0.185
2163,6008.333333333334,-0.26,-0.19
2164,6011.111111111111,-0.26,-0.19
2165,6013.88888888889,-0.265,-0.19
2166,6016.666666666667,-0.275,-0.195
2167,6019.444444444445,-0.295,-0.195
2168,6022.222222222222,-0.3,-0.195
2169,6025.0,-0.295,-0.185
2170,6027.777777777777,-0.285,-0.18
2171,6030.555555555556,-0.29,-0.185
2172,6033.333333333333,-0.295,-0.2
2173,6036.111111111111,-0.325,-0.2
2174,6038.888888888889,-0.33,-0.18
2175,6041.666666666667,-0.325,-0.17
2176,6044.444444444444,-0.32,-0.16
2177,6047.222222222223,-0.32,-0.155
2178,6050.0,-0.31,-0.165
2179,6052.777777777778,-0.33,-0.18
2180,6055.555555555556,-0.335,-0.17
2181,6058.333333333334,-0.305,-0.16
2182,6061.111111111111,-0.285,-0.17
2183,6063.888888888889,-0.27,-0.175
2184,6066.666666666666,-0.275,-0.195
2185,6069.444444444444,-0.29,-0.21
2186,6072.222222222222,-0.285,-0.185
2187,6075.0,-0.275,-0.185
2188,6077.777777777777,-0.265,-0.175
2189,6080.555555555556,-0.26,-0.19
2190,6083.333333333333,-0.265,-0.2
2191,6086.111111111111,-0.275,-0.215
2192,6088.888888888889,-0.27,-0.2
2193,6091.666666666667,-0.26,-0.19
2194,6094.444444444444,-0.25,-0.19
2195,6097.222222222223,-0.245,-0.21
2196,6100.0,-0.245,-0.21
2197,6102.777777777778,-0.255,-0.23
2198,6105.555555555555,-0.24,-0.22
2199,6108.333333333333,-0.235,-0.21
2200,6111.11111111111,-0.23,-0.205
2201,6113.888888888889,-0.235,-0.21
2202,6116.666666666666,-0.24,-0.205
2203,6119.444444444444,-0.245,-0.21
2204,6122.222222222222,-0.245,-0.205
2205,6125.0,-0.235,-0.195
2206,6127.777777777778,-0.225,-0.185
2207,6130.555555555556,-0.235,-0.19
2208,6133.333333333334,-0.24,-0.185
2209,6136.111111111111,-0.245,-0.2
2210,6138.88888888889,-0.25,-0.18
2211,6141.666666666667,-0.235,-0.17
2212,6144.444444444445,-0.225,-0.18
2213,6147.222222222222,-0.23,-0.195
2214,6150.0,-0.235,-0.215
2215,6152.777777777777,-0.235,-0.21
2216,6155.555555555556,-0.235,-0.195
2217,6158.333333333333,-0.24,-0.17
2218,6161.111111111111,-0.24,-0.155
2219,6163.888888888889,-0.235,-0.16
2220,6166.666666666667,-0.23,-0.15
2221,6169.444444444444,-0.235,-0.15
2222,6172.222222222223,-0.22,-0.15
2223,6175.0,-0.215,-0.15
2224,6177.777777777778,-0.19,-0.185
2225,6180.555555555556,-0.165,-0.29
2226,6183.333333333334,-0.15,-0.41
2227,6186.111111111111,-0.13,-0.515
2228,6188.888888888889,-0.085,-0.6
2229,6191.666666666666,0.02,-0.675
2230,6194.444444444444,0.145,-0.775
2231,6197.222222222222,0.255,-0.88
2232,6200.0,0.365,-0.96
2233,6202.777777777777,0.475,-0.955
2234,6205.555555555556,0.595,-0.88
2235,6208.333333333333,0.705,-0.78
2236,6211.111111111111,0.81,-0.68
2237,6213.888888888889,0.865,-0.57
2238,6216.666666666667,0.86,-0.425
2239,6219.444444444444,0.755,-0.31
2240,6222.222222222223,0.575,-0.215
2241,6225.0,0.36,-0.125
2242,6227.777777777778,0.155,-0.085
2243,6230.555555555555,-0.025,-0.11
2244,6233.333333333333,-0.165,-0.17
2245,6236.11111111111,-0.27,-0.22
2246,6238.888888888889,-0.31,-0.23
2247,6241.666666666666,-0.3,-0.21
2248,6244.444444444444,-0.26,-0.195
2249,6247.222222222222,-0.205,-0.2
2250,6250.0,-0.19,-0.215
2251,6252.777777777778,-0.195,-0.22
2252,6255.555555555556,-0.215,-0.215
2253,6258.333333333334,-0.22,-0.21
2254,6261.111111111111,-0.215,-0.195
2255,6263.88888888889,-0.225,-0.195
2256,6266.666666666667,-0.235,-0.21
2257,6269.444444444445,-0.245,-0.205
2258,6272.222222222222,-0.255,-0.19
2259,6275.0,-0.24,-0.18
2260,6277.777777777777,-0.23,-0.19
2261,6280.555555555556,-0.24,-0.19
2262,6283.333333333333,-0.255,-0.21
2263,6286.111111111111,-0.26,-0.215
2264,6288.888888888889,-0.275,-0.225
2265,6291.666666666667,-0.265,-0.215
2266,6294.444444444444,-0.255,-0.205
2267,6297.222222222223,-0.25,-0.205
2268,6300.0,-0.265,-0.21
2269,6302.777777777778,-0.275,-0.235
2270,6305.555555555556,-0.28,-0.225
2271,6308.333333333334,-0.27,-0.21
2272,6311.111111111111,-0.265,-0.215
2273,6313.888888888889,-0.275,-0.215
2274,6316.666666666666,-0.285,-0.24
2275,6319.444444444444,-0.3,-0.24
2276,6322.222222222222,-0.295,-0.24
2277,6325.0,-0.28,-0.235
2278,6327.777777777777,-0.275,-0.22
2279,6330.555555555556,-0.275,-0.22
2280,6333.333333333333,-0.275,-0.235
2281,6336.111111111111,-0.29,-0.24
2282,6338.888888888889,-0.28,-0.235
2283,6341.666666666667,-0.275,-0.22
2284,6344.444444444444,-0.265,-0.205
2285,6347.222222222223,-0.27,-0.22
2286,6350.0,-0.275,-0.235
2287,6352.777777777778,-0.285,-0.24
2288,6355.555555555555,-0.28,-0.235
2289,6358.333333333333,-0.27,-0.225
2290,6361.11111111111,-0.26,-0.235
2291,6363.888888888889,-0.26,-0.235
2292,6366.666666666666,-0.26,-0.24
2293,6369.444444444444,-0.27,-0.245
2294,6372.222222222222,-0.265,-0.225
2295,6375.0,-0.25,-0.215
2296,6377.777777777778,-0.235,-0.205
2297,6380.555555555556,-0.24,-0.2
2298,6383.333333333334,-0.235,-0.21
2299,6386.111111111111,-0.24,-0.195
2300,6388.88888888889,-0.22,-0.18
2301,6391.666666666667,-0.21,-0.175
2302,6394.444444444445,-0.195,-0.18
2303,6397.222222222222,-0.19,-0.18
2304,6400.0,-0.185,-0.205
2305,6402.777777777777,-0.185,-0.215
2306,6405.555555555556,-0.175,-0.205
2307,6408.333333333333,-0.165,-0.21
2308,6411.111111111111,-0.145,-0.21
2309,6413.888888888889,-0.15,-0.22
2310,6416.666666666667,-0.145,-0.235
2311,6419.444444444444,-0.15,-0.25
2312,6422.222222222223,-0.14,-0.25
2313,6425.0,-0.13,-0.27
2314,6427.777777777778,-0.135,-0.275
2315,6430.555555555556,-0.13,-0.3
2316,6433.333333333334,-0.135,-0.31
2317,6436.111111111111,-0.14,-0.32
2318,6438.888888888889,-0.13,-0.305
2319,6441.666666666666,-0.12,-0.29
2320,6444.444444444444,-0.11,-0.305
2321,6447.222222222222,-0.12,-0.305
2322,6450.0,-0.13,-0.3
2323,6452.777777777777,-0.135,-0.305
2324,6455.555555555556,-0.14,-0.29
2325,6458.333333333333,-0.14,-0.27
2326,6461.111111111111,-0.13,-0.265
2327,6463.888888888889,-0.14,-0.26
2328,6466.666666666667,-0.155,-0.265
2329,6469.444444444444,-0.165,-0.275
2330,6472.222222222223,-0.175,-0.255
2331,6475.0,-0.18,-0.24
2332,6477.777777777778,-0.18,-0.24
2333,6480.555555555555,-0.19,-0.23
2334,6483.333333333333,-0.2,-0.25
2335,6486.11111111111,-0.215,-0.25
2336,6488.888888888889,-0.225,-0.24
2337,6491.666666666666,-0.225,-0.235
2338,6494.444444444444,-0.225,-0.24
2339,6497.222222222222,-0.23,-0.25
2340,6500.0,-0.245,-0.26
2341,6502.777777777778,-0.26,-0.27
2342,6505.555555555556,-0.26,-0.25
2343,6508.333333333334,-0.25,-0.235
2344,6511.111111111111,-0.25,-0.24
2345,6513.88888888889,-0.265,-0.23
2346,6516.666666666667,-0.275,-0.23
2347,6519.444444444445,-0.285,-0.23
2348,6522.222222222222,-0.28,-0.22
2349,6525.0,-0.265,-0.205
2350,6527.777777777777,-0.27,-0.22
2351,6530.555555555556,-0.27,-0.215
2352,6533.333333333333,-0.29,-0.24
2353,6536.111111111111,-0.295,-0.235
2354,6538.888888888889,-0.3,-0.225
2355,6541.666666666667,-0.295,-0.22
2356,6544.444444444444,-0.3,-0.21
2357,6547.222222222223,-0.295,-0.2
2358,6550.0,-0.305,-0.2
2359,6552.777777777778,-0.3,-0.215
2360,6555.555555555556,-0.3,-0.195
2361,6558.333333333334,-0.295,-0.175
2362,6561.111111111111,-0.275,-0.165
2363,6563.888888888889,-0.28,-0.155
2364,6566.666666666666,-0.28,-0.155
2365,6569.444444444444,-0.28,-0.15
2366,6572.222222222222,-0.28,-0.145
2367,6575.0,-0.275,-0.14
2368,6577.777777777777,-0.265,-0.145
2369,6580.555555555556,-0.275,-0.125
2370,6583.333333333333,-0.27,-0.135
2371,6586.111111111111,-0.285,-0.13
2372,6588.888888888889,-0.285,-0.115
2373,6591.666666666667,-0.28,-0.105
2374,6594.444444444444,-0.27,-0.11
2375,6597.222222222223,-0.26,-0.115
2376,6600.0,-0.255,-0.13
2377,6602.777777777778,-0.25,-0.14
2378,6605.555555555555,-0.25,-0.15
2379,6608.333333333333,-0.235,-0.145
2380,6611.11111111111,-0.235,-0.15
2381,6613.888888888889,-0.24,-0.16
2382,6616.666666666666,-0.24,-0.17
2383,6619.444444444444,-0.26,-0.19
2384,6622.222222222222,-0.26,-0.185
2385,6625.0,-0.24,-0.205
2386,6627.777777777778,-0.245,-0.205
2387,6630.555555555556,-0.245,-0.23
2388,6633.333333333334,-0.255,-0.24
2389,6636.111111111111,-0.255,-0.24
2390,6638.88888888889,-0.265,-0.24
2391,6641.666666666667,-0.255,-0.225
2392,6644.444444444445,-0.25,-0.225
2393,6647.222222222222,-0.255,-0.22
2394,6650.0,-0.25,-0.235
2395,6652.777777777777,-0.26,-0.235
2396,6655.555555555556,-0.26,-0.22
2397,6658.333333333333,-0.265,-0.22
2398,6661.111111111111,-0.26,-0.215
2399,6663.888888888889,-0.265,-0.215
2400,6666.666666666667,-0.275,-0.215
2401,6669.444444444444,-0.28,-0.225
2402,6672.222222222223,-0.28,-0.23
2403,6675.0,-0.27,-0.22
2404,6677.777777777778,-0.265,-0.21
2405,6680.555555555556,-0.27,-0.22
2406,6683.333333333334,-0.28,-0.215
2407,6686.111111111111,-0.28,-0.215
2408,6688.888888888889,-0.285,-0.2
2409,6691.666666666666,-0.28,-0.21
2410,6694.444444444444,-0.275,-0.21
2411,6697.222222222222,-0.28,-0.23
2412,6700.0,-0.285,-0.245
2413,6702.777777777777,-0.305,-0.25
2414,6705.555555555556,-0.31,-0.235
2415,6708.333333333333,-0.3,-0.225
2416,6711.111111111111,-0.29,-0.205
2417,6713.888888888889,-0.29,-0.2
2418,6716.666666666667,-0.29,-0.21
2419,6719.444444444444,-0.29,-0.21
2420,6722.222222222223,-0.31,-0.205
2421,6725.0,-0.29,-0.19
2422,6727.777777777778,-0.29,-0.185
2423,6730.555555555555,-0.295,-0.17
2424,6733.333333333333,-0.305,-0.185
2425,6736.11111111111,-0.31,-0.19
2426,6738.888888888889,-0.305,-0.185
2427,6741.666666666666,-0.31,-0.17
2428,6744.444444444444,-0.3,-0.16
2429,6747.222222222222,-0.305,-0.165
2430,6750.0,-0.31,-0.175
2431,6752.777777777778,-0.32,-0.175
2432,6755.555555555556,-0.33,-0.16
2433,6758.333333333334,-0.32,-0.155
2434,6761.111111111111,-0.31,-0.16
2435,6763.88888888889,-0.305,-0.155
2436,6766.666666666667,-0.32,-0.16
2437,6769.444444444445,-0.34,-0.16
2438,6772.222222222222,-0.35,-0.15
2439,6775.0,-0.34,-0.14
2440,6777.777777777777,-0.325,-0.13
2441,6780.555555555556,-0.335,-0.11
2442,6783.333333333333,-0.325,-0.125
2443,6786.111111111111,-0.315,-0.125
2444,6788.888888888889,-0.295,-0.135
2445,6791.666666666667,-0.25,-0.13
2446,6794.444444444444,-0.225,-0.13
2447,6797.222222222223,-0.22,-0.145
2448,6800.0,-0.225,-0.165
2449,6802.777777777778,-0.24,-0.175
2450,6805.555555555556,-0.24,-0.16
2451,6808.333333333334,-0.235,-0.165
2452,6811.111111111111,-0.22,-0.165
2453,6813.888888888889,-0.23,-0.19
2454,6816.666666666666,-0.23,-0.21
2455,6819.444444444444,-0.24,-0.225
2456,6822.222222222222,-0.24,-0.225
2457,6825.0,-0.23,-0.21
2458,6827.777777777777,-0.225,-0.215
2459,6830.555555555556,-0.22,-0.22
2460,6833.333333333333,-0.245,-0.23
2461,6836.111111111111,-0.24,-0.24
2462,6838.888888888889,-0.255,-0.225
2463,6841.666666666667,-0.245,-0.215
2464,6844.444444444444,-0.235,-0.215
2465,6847.222222222223,-0.245,-0.21
2466,6850.0,-0.255,-0.215
2467,6852.777777777778,-0.255,-0.22
2468,6855.555555555555,-0.265,-0.21
2469,6858.333333333333,-0.255,-0.2
2470,6861.11111111111,-0.26,-0.19
2471,6863.888888888889,-0.265,-0.2
2472,6866.666666666666,-0.275,-0.21
2473,6869.444444444444,-0.28,-0.205
2474,6872.222222222222,-0.27,-0.205
2475,6875.0,-0.27,-0.2
2476,6877.777777777778,-0.255,-0.2
2477,6880.555555555556,-0.25,-0.205
2478,6883.333333333334,-0.24,-0.19
2479,6886.111111111111,-0.245,-0.185
2480,6888.88888888889,-0.235,-0.155
2481,6891.666666666667,-0.24,-0.135
2482,6894.444444444445,-0.215,-0.145
2483,6897.222222222222,-0.19,-0.205
2484,6900.0,-0.155,-0.305
2485,6902.777777777777,-0.145,-0.39
2486,6905.555555555556,-0.11,-0.485
2487,6908.333333333333,-0.045,-0.55
2488,6911.111111111111,0.06,-0.635
2489,6913.888888888889,0.165,-0.745
2490,6916.666666666667,0.26,-0.875
2491,6919.444444444444,0.35,-0.975
2492,6922.222222222223,0.47,-0.99
2493,6925.0,0.59,-0.945
2494,6927.777777777778,0.67,-0.875
2495,6930.555555555556,0.725,-0.81
2496,6933.333333333334,0.755,-0.735
2497,6936.111111111111,0.75,-0.59
2498,6938.888888888889,0.68,-0.415
2499,6941.666666666666,0.56,-0.265
2500,6944.444444444444,0.425,-0.19
2501,6947.222222222222,0.235,-0.185
2502,6950.0,0.04,-0.22
2503,6952.777777777777,-0.095,-0.245
2504,6955.555555555556,-0.15,-0.235
2505,6958.333333333333,-0.165,-0.21
2506,6961.111111111111,-0.17,-0.195
2507,6963.888888888889,-0.17,-0.205
2508,6966.666666666667,-0.18,-0.2
2509,6969.444444444444,-0.175,-0.21
2510,6972.222222222223,-0.195,-0.185
2511,6975.0,-0.2,-0.175
2512,6977.777777777778,-0.205,-0.17
2513,6980.555555555555,-0.23,-0.195
2514,6983.333333333333,-0.25,-0.205
2515,6986.11111111111,-0.27,-0.235
2516,6988.888888888889,-0.27,-0.215
2517,6991.666666666666,-0.265,-0.21
2518,6994.444444444444,-0.265,-0.205
2519,6997.222222222222,-0.285,-0.205
2520,7000.0,-0.3,-0.22
2521,7002.777777777778,-0.305,-0.21
2522,7005.555555555556,-0.305,-0.2
2523,7008.333333333334,-0.295,-0.195
2524,7011.111111111111,-0.28,-0.19
2525,7013.88888888889,-0.29,-0.18
2526,7016.666666666667,-0.29,-0.185
2527,7019.444444444445,-0.295,-0.2
2528,7022.222222222222,-0.295,-0.205
2529,7025.0,-0.295,-0.205
2530,7027.777777777777,-0.285,-0.19
2531,7030.555555555556,-0.275,-0.195
2532,7033.333333333333,-0.27,-0.2
2533,7036.111111111111,-0.285,-0.205
2534,7038.888888888889,-0.29,-0.195
2535,7041.666666666667,-0.285,-0.185
2536,7044.444444444444,-0.275,-0.175
2537,7047.222222222223,-0.285,-0.175
2538,7050.0,-0.28,-0.17
2539,7052.777777777778,-0.28,-0.175
2540,7055.555555555556,-0.28,-0.175
2541,7058.333333333334,-0.275,-0.165
2542,7061.111111111111,-0.27,-0.145
2543,7063.888888888889,-0.275,-0.145
2544,7066.666666666666,-0.285,-0.14
2545,7069.444444444444,-0.295,-0.155
2546,7072.222222222222,-0.29,-0.155
2547,7075.0,-0.28,-0.135
2548,7077.777777777777,-0.275,-0.14
2549,7080.555555555556,-0.275,-0.165
2550,7083.333333333333,-0.28,-0.18
2551,7086.111111111111,-0.285,-0.185
2552,7088.888888888889,-0.28,-0.205
2553,7091.666666666667,-0.275,-0.2
2554,7094.444444444444,-0.265,-0.21
2555,7097.222222222223,-0.255,-0.235
2556,7100.0,-0.265,-0.25
2557,7102.777777777778,-0.255,-0.255
2558,7105.555555555555,-0.235,-0.265
2559,7108.333333333333,-0.21,-0.245
2560,7111.11111111111,-0.195,-0.245
2561,7113.888888888889,-0.19,-0.265
2562,7116.666666666666,-0.18,-0.285
2563,7119.444444444444,-0.185,-0.3
2564,7122.222222222222,-0.185,-0.29
2565,7125.0,-0.165,-0.27
2566,7127.777777777778,-0.155,-0.275
2567,7130.555555555556,-0.16,-0.27
2568,7133.333333333334,-0.17,-0.285
2569,7136.111111111111,-0.175,-0.295
2570,7138.88888888889,-0.165,-0.285
2571,7141.666666666667,-0.155,-0.275
2572,7144.444444444445,-0.145,-0.265
2573,7147.222222222222,-0.145,-0.255
2574,7150.0,-0.14,-0.26
2575,7152.777777777777,-0.14,-0.25
2576,7155.555555555556,-0.14,-0.225
2577,7158.333333333333,-0.135,-0.235
2578,7161.111111111111,-0.125,-0.23
2579,7163.888888888889,-0.13,-0.23
2580,7166.666666666667,-0.14,-0.235
2581,7169.444444444444,-0.165,-0.235
2582,7172.222222222223,-0.175,-0.225
2583,7175.0,-0.175,-0.215
2584,7177.777777777778,-0.18,-0.21
2585,7180.555555555556,-0.2,-0.21
2586,7183.333333333334,-0.215,-0.21
2587,7186.111111111111,-0.23,-0.215
2588,7188.888888888889,-0.24,-0.185
2589,7191.666666666666,-0.235,-0.175
2590,7194.444444444444,-0.235,-0.165
2591,7197.222222222222,-0.25,-0.16
2592,7200.0,-0.27,-0.16
2593,7202.777777777777,-0.27,-0.155
2594,7205.555555555556,-0.265,-0.145
2595,7208.333333333333,-0.27,-0.145
2596,7211.111111111111,-0.275,-0.145
2597,7213.888888888889,-0.29,-0.155
2598,7216.666666666667,-0.295,-0.155
2599,7219.444444444444,-0.29,-0.165
2600,7222.222222222223,-0.295,-0.16
2601,7225.0,-0.285,-0.135
2602,7227.777777777778,-0.275,-0.135
2603,7230.555555555555,-0.285,-0.13
2604,7233.333333333333,-0.285,-0.135
2605,7236.11111111111,-0.295,-0.145
2606,7238.888888888889,-0.29,-0.145
2607,7241.666666666666,-0.28,-0.135
2608,7244.444444444444,-0.28,-0.145
2609,7247.222222222222,-0.285,-0.15
2610,7250.0,-0.29,-0.15
2611,7252.777777777778,-0.29,-0.17
2612,7255.555555555556,-0.295,-0.16
2613,7258.333333333334,-0.295,-0.16
2614,7261.111111111111,-0.29,-0.175
2615,7263.88888888889,-0.285,-0.18
2616,7266.666666666667,-0.275,-0.195
2617,7269.444444444445,-0.275,-0.185
2618,7272.222222222222,-0.26,-0.195
2619,7275.0,-0.25,-0.195
2620,7277.777777777777,-0.235,-0.21
2621,7280.555555555556,-0.235,-0.215
2622,7283.333333333333,-0.24,-0.215
2623,7286.111111111111,-0.24,-0.23
2624,7288.888888888889,-0.255,-0.225
2625,7291.666666666667,-0.245,-0.215
2626,7294.444444444444,-0.245,-0.21
2627,7297.222222222223,-0.25,-0.21
2628,7300.0,-0.25,-0.215
2629,7302.777777777778,-0.245,-0.225
2630,7305.555555555556,-0.245,-0.21
2631,7308.333333333334,-0.24,-0.2
2632,7311.111111111111,-0.235,-0.2
2633,7313.888888888889,-0.25,-0.205
2634,7316.666666666666,-0.245,-0.205
2635,7319.444444444444,-0.255,-0.215
2636,7322.222222222222,-0.255,-0.215
2637,7325.0,-0.255,-0.215
2638,7327.777777777777,-0.25,-0.205
2639,7330.555555555556,-0.26,-0.21
2640,7333.333333333333,-0.265,-0.23
2641,7336.111111111111,-0.27,-0.23
2642,7338.888888888889,-0.27,-0.22
2643,7341.666666666667,-0.27,-0.21
2644,7344.444444444444,-0.27,-0.195
2645,7347.222222222223,-0.27,-0.185
2646,7350.0,-0.27,-0.205
2647,7352.777777777778,-0.27,-0.195
2648,7355.555555555555,-0.29,-0.175
2649,7358.333333333333,-0.29,-0.165
2650,7361.11111111111,-0.27,-0.165
2651,7363.888888888889,-0.27,-0.155
2652,7366.666666666666,-0.29,-0.165
2653,7369.444444444444,-0.285,-0.16
2654,7372.222222222222,-0.285,-0.15
2655,7375.0,-0.285,-0.145
2656,7377.777777777778,-0.28,-0.15
2657,7380.555555555556,-0.285,-0.165
2658,7383.333333333334,-0.285,-0.165
2659,7386.111111111111,-0.295,-0.17
2660,7388.88888888889,-0.29,-0.16
2661,7391.666666666667,-0.29,-0.135
2662,7394.444444444445,-0.285,-0.14
2663,7397.222222222222,-0.295,-0.13
2664,7400.0,-0.295,-0.14
2665,7402.777777777777,-0.305,-0.145
2666,7405.555555555556,-0.3,-0.145
2667,7408.333333333333,-0.305,-0.13
2668,7411.111111111111,-0.295,-0.135
2669,7413.888888888889,-0.295,-0.15
2670,7416.666666666667,-0.3,-0.16
2671,7419.444444444444,-0.315,-0.17
2672,7422.222222222223,-0.315,-0.17
2673,7425.0,-0.32,-0.165
2674,7427.777777777778,-0.31,-0.175
2675,7430.555555555556,-0.3,-0.17
2676,7433.333333333334,-0.31,-0.16
2677,7436.111111111111,-0.305,-0.165
2678,7438.888888888889,-0.29,-0.16
2679,7441.666666666666,-0.275,-0.17
2680,7444.444444444444,-0.265,-0.17
2681,7447.222222222222,-0.27,-0.19
2682,7450.0,-0.275,-0.2
2683,7452.777777777777,-0.28,-0.2
2684,7455.555555555556,-0.285,-0.215
2685,7458.333333333333,-0.28,-0.205
2686,7461.111111111111,-0.275,-0.225
2687,7463.888888888889,-0.285,-0.235
2688,7466.666666666667,-0.285,-0.245
2689,7469.444444444444,-0.29,-0.26
2690,7472.222222222223,-0.29,-0.24
2691,7475.0,-0.29,-0.225
2692,7477.777777777778,-0.28,-0.225
2693,7480.555555555555,-0.28,-0.225
2694,7483.333333333333,-0.29,-0.23
2695,7486.11111111111,-0.305,-0.235
2696,7488.888888888889,-0.31,-0.24
2697,7491.666666666666,-0.295,-0.235
2698,7494.444444444444,-0.28,-0.24
2699,7497.222222222222,-0.285,-0.24
2700,7500.0,-0.295,-0.245
2701,7502.777777777778,-0.3,-0.24
2702,7505.555555555556,-0.3,-0.22
2703,7508.333333333334,-0.305,-0.2
2704,7511.111111111111,-0.29,-0.17
2705,7513.88888888889,-0.295,-0.155
2706,7516.666666666667,-0.27,-0.145
2707,7519.444444444445,-0.265,-0.165
2708,7522.222222222222,-0.235,-0.19
2709,7525.0,-0.2,-0.26
2710,7527.777777777777,-0.18,-0.355
2711,7530.555555555556,-0.165,-0.43
2712,7533.333333333333,-0.135,-0.52
2713,7536.111111111111,-0.07,-0.58
2714,7538.888888888889,0.02,-0.665
2715,7541.666666666667,0.13,-0.765
2716,7544.444444444444,0.235,-0.885
2717,7547.222222222223,0.35,-0.98
2718,7550.0,0.485,-0.99
2719,7552.777777777778,0.585,-0.93
2720,7555.555555555556,0.68,-0.83
2721,7558.333333333334,0.76,-0.715
2722,7561.111111111111,0.815,-0.54
2723,7563.888888888889,0.76,-0.365
2724,7566.666666666666,0.605,-0.255
2725,7569.444444444444,0.4,-0.165
2726,7572.222222222222,0.16,-0.12
2727,7575.0,-0.04,-0.13
2728,7577.777777777777,-0.165,-0.175
2729,7580.555555555556,-0.235,-0.185
2730,7583.333333333333,-0.285,-0.195
2731,7586.111111111111,-0.295,-0.19
2732,7588.888888888889,-0.285,-0.18
2733,7591.666666666667,-0.25,-0.16
2734,7594.444444444444,-0.235,-0.16
2735,7597.222222222223,-0.24,-0.15
2736,7600.0,-0.265,-0.17
2737,7602.777777777778,-0.295,-0.18
2738,7605.555555555555,-0.3,-0.17
2739,7608.333333333333,-0.295,-0.175
2740,7611.11111111111,-0.27,-0.18
2741,7613.888888888889,-0.265,-0.19
2742,7616.666666666666,-0.265,-0.205
2743,7619.444444444444,-0.275,-0.22
2744,7622.222222222222,-0.28,-0.205
2745,7625.0,-0.27,-0.205
2746,7627.777777777778,-0.27,-0.215
2747,7630.555555555556,-0.275,-0.225
2748,7633.333333333334,-0.28,-0.235
2749,7636.111111111111,-0.3,-0.245
2750,7638.88888888889,-0.3,-0.245
2751,7641.666666666667,-0.31,-0.245
2752,7644.444444444445,-0.3,-0.25
2753,7647.222222222222,-0.31,-0.26
2754,7650.0,-0.32,-0.275
2755,7652.777777777777,-0.34,-0.28
2756,7655.555555555556,-0.34,-0.275
2757,7658.333333333333,-0.325,-0.255
2758,7661.111111111111,-0.315,-0.255
2759,7663.888888888889,-0.32,-0.265
2760,7666.666666666667,-0.32,-0.275
2761,7669.444444444444,-0.315,-0.275
2762,7672.222222222223,-0.31,-0.275
2763,7675.0,-0.295,-0.255
2764,7677.777777777778,-0.285,-0.245
2765,7680.555555555556,-0.29,-0.255
2766,7683.333333333334,-0.295,-0.265
2767,7686.111111111111,-0.3,-0.255
2768,7688.888888888889,-0.295,-0.26
2769,7691.666666666666,-0.29,-0.24
2770,7694.444444444444,-0.28,-0.24
2771,7697.222222222222,-0.29,-0.245
2772,7700.0,-0.29,-0.25
2773,7702.777777777777,-0.3,-0.265
2774,7705.555555555556,-0.28,-0.255
2775,7708.333333333333,-0.275,-0.24
2776,7711.111111111111,-0.265,-0.24
2777,7713.888888888889,-0.265,-0.24
2778,7716.666666666667,-0.265,-0.255
2779,7719.444444444444,-0.265,-0.265
2780,7722.222222222223,-0.26,-0.245
2781,7725.0,-0.25,-0.24
2782,7727.777777777778,-0.24,-0.225
2783,7730.555555555555,-0.255,-0.245
2784,7733.333333333333,-0.255,-0.25
2785,7736.11111111111,-0.245,-0.265
2786,7738.888888888889,-0.24,-0.265
2787,7741.666666666666,-0.23,-0.245
2788,7744.444444444444,-0.22,-0.26
2789,7747.222222222222,-0.215,-0.255
2790,7750.0,-0.215,-0.255
2791,7752.777777777778,-0.205,-0.26
2792,7755.555555555556,-0.2,-0.245
2793,7758.333333333334,-0.195,-0.245
2794,7761.111111111111,-0.18,-0.25
2795,7763.88888888889,-0.165,-0.25
2796,7766.666666666667,-0.15,-0.245
2797,7769.444444444445,-0.145,-0.265
2798,7772.222222222222,-0.13,-0.27
2799,7775.0,-0.11,-0.25
2800,7777.777777777777,-0.105,-0.25
2801,7780.555555555556,-0.1,-0.26
2802,7783.333333333333,-0.11,-0.28
2803,7786.111111111111,-0.125,-0.28
2804,7788.888888888889,-0.14,-0.27
2805,7791.666666666667,-0.125,-0.26
2806,7794.444444444444,-0.13,-0.265
2807,7797.222222222223,-0.13,-0.265
2808,7800.0,-0.145,-0.26
2809,7802.777777777778,-0.16,-0.265
2810,7805.555555555556,-0.175,-0.25
2811,7808.333333333334,-0.175,-0.245
2812,7811.111111111111,-0.17,-0.245
2813,7813.888888888889,-0.19,-0.245
2814,7816.666666666666,-0.22,-0.25
2815,7819.444444444444,-0.24,-0.25
2816,7822.222222222222,-0.245,-0.245
2817,7825.0,-0.245,-0.235
2818,7827.777777777777,-0.25,-0.23
2819,7830.555555555556,-0.255,-0.225
2820,7833.333333333333,-0.27,-0.23
2821,7836.111111111111,-0.295,-0.255
2822,7838.888888888889,-0.295,-0.245
2823,7841.666666666667,-0.285,-0.235
2824,7844.444444444444,-0.27,-0.22
2825,7847.222222222223,-0.275,-0.22
2826,7850.0,-0.28,-0.225
2827,7852.777777777778,-0.29,-0.235
2828,7855.555555555555,-0.3,-0.23
2829,7858.333333333333,-0.28,-0.21
2830,7861.11111111111,-0.28,-0.205
2831,7863.888888888889,-0.28,-0.21
2832,7866.666666666666,-0.29,-0.21
2833,7869.444444444444,-0.305,-0.22
2834,7872.222222222222,-0.305,-0.22
2835,7875.0,-0.3,-0.19
2836,7877.777777777778,-0.29,-0.195
2837,7880.555555555556,-0.295,-0.195
2838,7883.333333333334,-0.3,-0.21
2839,7886.111111111111,-0.305,-0.225
2840,7888.88888888889,-0.31,-0.2
2841,7891.666666666667,-0.31,-0.195
2842,7894.444444444445,-0.3,-0.19
2843,7897.222222222222,-0.305,-0.195
2844,7900.0,-0.31,-0.2
2845,7902.777777777777,-0.33,-0.205
2846,7905.555555555556,-0.335,-0.195
2847,7908.333333333333,-0.325,-0.19
2848,7911.111111111111,-0.315,-0.195
2849,7913.888888888889,-0.315,-0.2
2850,7916.666666666667,-0.31,-0.225
2851,7919.444444444444,-0.315,-0.24
2852,7922.222222222223,-0.315,-0.24
2853,7925.0,-0.32,-0.225
2854,7927.777777777778,-0.31,-0.22
2855,7930.555555555556,-0.32,-0.22
2856,7933.333333333334,-0.33,-0.23
2857,7936.111111111111,-0.345,-0.23
2858,7938.888888888889,-0.345,-0.2
2859,7941.666666666666,-0.345,-0.175
2860,7944.444444444444,-0.315,-0.16
2861,7947.222222222222,-0.315,-0.165
2862,7950.0,-0.305,-0.16
2863,7952.777777777777,-0.3,-0.19
2864,7955.555555555556,-0.285,-0.17
2865,7958.333333333333,-0.26,-0.18
2866,7961.111111111111,-0.245,-0.175
2867,7963.888888888889,-0.25,-0.18
2868,7966.666666666667,-0.255,-0.195
2869,7969.444444444444,-0.27,-0.2
2870,7972.222222222223,-0.27,-0.21
2871,7975.0,-0.27,-0.205
2872,7977.777777777778,-0.265,-0.195
2873,7980.555555555555,-0.27,-0.195
2874,7983.333333333333,-0.28,-0.205
2875,7986.11111111111,-0.275,-0.21
2876,7988.888888888889,-0.27,-0.195
2877,7991.666666666666,-0.26,-0.185
2878,7994.444444444444,-0.255,-0.18
2879,7997.222222222222,-0.265,-0.17
2880,8000.0,-0.27,-0.19
2881,8002.777777777778,-0.285,-0.205
2882,8005.555555555557,-0.285,-0.205
2883,8008.333333333333,-0.27,-0.195
2884,8011.111111111111,-0.255,-0.2
2885,8013.88888888889,-0.255,-0.2
2886,8016.666666666668,-0.27,-0.2
2887,8019.444444444444,-0.275,-0.215
2888,8022.222222222222,-0.275,-0.21
2889,8025.0,-0.265,-0.19
2890,8027.777777777778,-0.255,-0.2
2891,8030.555555555555,-0.26,-0.205
2892,8033.333333333333,-0.265,-0.23
2893,8036.111111111111,-0.275,-0.235
2894,8038.88888888889,-0.275,-0.22
2895,8041.666666666666,-0.28,-0.205
2896,8044.444444444444,-0.265,-0.2
2897,8047.222222222223,-0.27,-0.21
2898,8050.000000000001,-0.27,-0.22
2899,8052.777777777777,-0.29,-0.225
2900,8055.555555555556,-0.29,-0.21
2901,8058.333333333334,-0.285,-0.2
2902,8061.111111111112,-0.28,-0.21
2903,8063.888888888888,-0.285,-0.23
2904,8066.666666666666,-0.3,-0.22
2905,8069.444444444444,-0.305,-0.235
2906,8072.222222222223,-0.315,-0.23
2907,8074.999999999999,-0.305,-0.22
2908,8077.777777777777,-0.29,-0.215
2909,8080.555555555556,-0.29,-0.21
2910,8083.333333333334,-0.305,-0.215
2911,8086.11111111111,-0.315,-0.22
2912,8088.888888888889,-0.305,-0.21
2913,8091.666666666667,-0.285,-0.19
2914,8094.444444444445,-0.275,-0.185
2915,8097.222222222222,-0.28,-0.185
2916,8100.0,-0.3,-0.21
2917,8102.777777777778,-0.31,-0.215
2918,8105.555555555556,-0.305,-0.21
2919,8108.333333333332,-0.3,-0.195
2920,8111.11111111111,-0.285,-0.195
2921,8113.888888888889,-0.295,-0.195
2922,8116.666666666667,-0.3,-0.21
2923,8119.444444444443,-0.305,-0.215
2924,8122.222222222222,-0.31,-0.225
2925,8125.0,-0.31,-0.225
2926,8127.777777777778,-0.29,-0.21
2927,8130.555555555557,-0.28,-0.22
2928,8133.333333333333,-0.295,-0.225
2929,8136.111111111111,-0.285,-0.225
2930,8138.88888888889,-0.275,-0.215
2931,8141.666666666668,-0.255,-0.215
2932,8144.444444444444,-0.225,-0.21
2933,8147.222222222222,-0.23,-0.22
2934,8150.0,-0.235,-0.24
2935,8152.777777777778,-0.245,-0.25
2936,8155.555555555555,-0.245,-0.23
2937,8158.333333333333,-0.24,-0.21
2938,8161.111111111111,-0.22,-0.18
2939,8163.88888888889,-0.22,-0.16
2940,8166.666666666666,-0.215,-0.175
2941,8169.444444444444,-0.215,-0.18
2942,8172.222222222223,-0.205,-0.22
2943,8175.000000000001,-0.17,-0.3
2944,8177.777777777777,-0.135,-0.395
2945,8180.555555555556,-0.105,-0.49
2946,8183.333333333334,-0.065,-0.58
2947,8186.111111111112,0.03,-0.66
2948,8188.888888888888,0.13,-0.74
2949,8191.666666666666,0.255,-0.825
2950,8194.444444444445,0.385,-0.905
2951,8197.222222222223,0.52,-0.94
2952,8200.0,0.64,-0.925
2953,8202.777777777777,0.74,-0.865
2954,8205.555555555557,0.825,-0.78
2955,8208.333333333334,0.915,-0.7
2956,8211.11111111111,0.99,-0.59
2957,8213.888888888889,0.965,-0.445
2958,8216.666666666666,0.85,-0.34
2959,8219.444444444445,0.655,-0.24
2960,8222.22222222222,0.425,-0.15
2961,8225.0,0.19,-0.115
2962,8227.777777777777,-0.005,-0.12
2963,8230.555555555557,-0.145,-0.17
2964,8233.333333333332,-0.235,-0.23
2965,8236.111111111111,-0.305,-0.255
2966,8238.888888888889,-0.335,-0.24
2967,8241.666666666668,-0.325,-0.22
2968,8244.444444444443,-0.28,-0.21
2969,8247.222222222223,-0.26,-0.2
2970,8250.0,-0.245,-0.205
2971,8252.777777777777,-0.25,-0.215
2972,8255.555555555557,-0.265,-0.225
2973,8258.333333333332,-0.26,-0.205
2974,8261.111111111111,-0.25,-0.215
2975,8263.888888888889,-0.265,-0.21
2976,8266.666666666668,-0.275,-0.205
2977,8269.444444444443,-0.285,-0.21
2978,8272.222222222223,-0.305,-0.2
2979,8275.0,-0.295,-0.185
2980,8277.77777777778,-0.295,-0.185
2981,8280.555555555555,-0.31,-0.195
2982,8283.333333333334,-0.305,-0.195
2983,8286.111111111111,-0.31,-0.195
2984,8288.88888888889,-0.325,-0.19
2985,8291.666666666666,-0.325,-0.175
2986,8294.444444444443,-0.315,-0.175
2987,8297.222222222223,-0.32,-0.165
2988,8300.0,-0.32,-0.17
2989,8302.777777777777,-0.32,-0.17
2990,8305.555555555555,-0.32,-0.155
2991,8308.333333333334,-0.32,-0.155
2992,8311.111111111111,-0.31,-0.16
2993,8313.888888888889,-0.315,-0.16
2994,8316.666666666666,-0.31,-0.18
2995,8319.444444444445,-0.3,-0.195
2996,8322.222222222223,-0.305,-0.2
2997,8325.0,-0.29,-0.195
2998,8327.777777777777,-0.265,-0.215
2999,8330.555555555557,-0.28,-0.215
3000,8333.333333333334,-0.285,-0.235
3001,8336.11111111111,-0.295,-0.25
3002,8338.888888888889,-0.295,-0.25
3003,8341.666666666666,-0.275,-0.255
3004,8344.444444444445,-0.27,-0.265
3005,8347.22222222222,-0.27,-0.28
3006,8350.0,-0.265,-0.28
3007,8352.777777777777,-0.27,-0.285
3008,8355.555555555557,-0.265,-0.28
3009,8358.333333333332,-0.26,-0.26
3010,8361.111111111111,-0.26,-0.275
3011,8363.888888888889,-0.255,-0.28
3012,8366.666666666668,-0.265,-0.3
3013,8369.444444444443,-0.26,-0.32
3014,8372.222222222223,-0.255,-0.31
3015,8375.0,-0.25,-0.29
3016,8377.777777777777,-0.255,-0.3
3017,8380.555555555557,-0.235,-0.305
3018,8383.333333333332,-0.24,-0.315
3019,8386.111111111111,-0.245,-0.32
3020,8388.888888888889,-0.24,-0.325
3021,8391.666666666668,-0.235,-0.32
3022,8394.444444444443,-0.215,-0.325
3023,8397.222222222223,-0.215,-0.33
3024,8400.0,-0.215,-0.335
3025,8402.77777777778,-0.22,-0.335
3026,8405.555555555555,-0.21,-0.33
3027,8408.333333333334,-0.195,-0.33
3028,8411.111111111111,-0.175,-0.325
3029,8413.88888888889,-0.175,-0.32
3030,8416.666666666666,-0.175,-0.32
3031,8419.444444444443,-0.175,-0.315
3032,8422.222222222223,-0.18,-0.325
3033,8425.0,-0.165,-0.31
3034,8427.777777777777,-0.155,-0.3
3035,8430.555555555555,-0.155,-0.3
3036,8433.333333333334,-0.15,-0.315
3037,8436.111111111111,-0.155,-0.315
3038,8438.888888888889,-0.155,-0.31
3039,8441.666666666666,-0.155,-0.29
3040,8444.444444444445,-0.15,-0.3
3041,8447.222222222223,-0.145,-0.3
3042,8450.0,-0.145,-0.295
3043,8452.777777777777,-0.155,-0.3
3044,8455.555555555557,-0.155,-0.29
3045,8458.333333333334,-0.155,-0.27
3046,8461.11111111111,-0.155,-0.27
3047,8463.888888888889,-0.16,-0.28
3048,8466.666666666666,-0.17,-0.28
3049,8469.444444444445,-0.185,-0.28
3050,8472.22222222222,-0.195,-0.25
3051,8475.0,-0.2,-0.23
3052,8477.777777777777,-0.215,-0.225
3053,8480.555555555557,-0.225,-0.225
3054,8483.333333333332,-0.23,-0.215
3055,8486.111111111111,-0.255,-0.205
3056,8488.888888888889,-0.265,-0.19
3057,8491.666666666668,-0.27,-0.18
3058,8494.444444444443,-0.26,-0.165
3059,8497.222222222223,-0.27,-0.155
3060,8500.0,-0.275,-0.16
3061,8502.777777777777,-0.275,-0.175
3062,8505.555555555557,-0.275,-0.16
3063,8508.333333333332,-0.255,-0.17
3064,8511.111111111111,-0.245,-0.175
3065,8513.888888888889,-0.245,-0.18
3066,8516.666666666668,-0.245,-0.195
3067,8519.444444444443,-0.255,-0.21
3068,8522.222222222223,-0.24,-0.21
3069,8525.0,-0.235,-0.2
3070,8527.77777777778,-0.225,-0.215
3071,8530.555555555555,-0.23,-0.23
3072,8533.333333333334,-0.245,-0.24
3073,8536.111111111111,-0.255,-0.255
3074,8538.88888888889,-0.25,-0.25
3075,8541.666666666666,-0.25,-0.26
3076,8544.444444444443,-0.245,-0.265
3077,8547.222222222223,-0.25,-0.27
3078,8550.0,-0.25,-0.27
3079,8552.777777777777,-0.255,-0.27
3080,8555.555555555555,-0.255,-0.24
3081,8558.333333333334,-0.255,-0.25
3082,8561.111111111111,-0.24,-0.24
3083,8563.888888888889,-0.225,-0.245
3084,8566.666666666666,-0.235,-0.24
3085,8569.444444444445,-0.24,-0.24
3086,8572.222222222223,-0.235,-0.235
3087,8575.0,-0.22,-0.22
3088,8577.777777777777,-0.22,-0.225
3089,8580.555555555557,-0.23,-0.22
3090,8583.333333333334,-0.24,-0.23
3091,8586.11111111111,-0.25,-0.23
3092,8588.888888888889,-0.24,-0.225
3093,8591.666666666666,-0.23,-0.215
3094,8594.444444444445,-0.225,-0.225
3095,8597.22222222222,-0.225,-0.22
3096,8600.0,-0.24,-0.23
3097,8602.777777777777,-0.245,-0.225
3098,8605.555555555557,-0.255,-0.22
3099,8608.333333333332,-0.24,-0.21
3100,8611.111111111111,-0.245,-0.205
3101,8613.888888888889,-0.24,-0.2
3102,8616.666666666668,-0.25,-0.21
3103,8619.444444444443,-0.255,-0.215
3104,8622.222222222223,-0.255,-0.205
3105,8625.0,-0.24,-0.21
3106,8627.777777777777,-0.23,-0.205
3107,8630.555555555557,-0.235,-0.2
3108,8633.333333333332,-0.245,-0.205
3109,8636.111111111111,-0.26,-0.215
3110,8638.888888888889,-0.26,-0.215
3111,8641.666666666668,-0.25,-0.19
3112,8644.444444444443,-0.245,-0.19
3113,8647.222222222223,-0.25,-0.205
3114,8650.0,-0.265,-0.21
3115,8652.77777777778,-0.27,-0.22
3116,8655.555555555555,-0.275,-0.205
3117,8658.333333333334,-0.275,-0.22
3118,8661.111111111111,-0.29,-0.21
3119,8663.88888888889,-0.275,-0.21
3120,8666.666666666666,-0.3,-0.225
3121,8669.444444444443,-0.32,-0.235
3122,8672.222222222223,-0.325,-0.225
3123,8675.0,-0.32,-0.215
3124,8677.777777777777,-0.305,-0.21
3125,8680.555555555555,-0.315,-0.2
3126,8683.333333333334,-0.335,-0.215
3127,8686.111111111111,-0.345,-0.205
3128,8688.888888888889,-0.345,-0.19
3129,8691.666666666666,-0.32,-0.19
3130,8694.444444444445,-0.29,-0.19
3131,8697.222222222223,-0.285,-0.19
3132,8700.0,-0.285,-0.21
3133,8702.777777777777,-0.275,-0.215
3134,8705.555555555557,-0.27,-0.23
3135,8708.333333333334,-0.25,-0.22
3136,8711.11111111111,-0.24,-0.23
3137,8713.888888888889,-0.21,-0.245
3138,8716.666666666666,-0.2,-0.245
3139,8719.444444444445,-0.205,-0.235
3140,8722.22222222222,-0.2,-0.225
3141,8725.0,-0.19,-0.205
3142,8727.777777777777,-0.18,-0.2
3143,8730.555555555557,-0.195,-0.22
3144,8733.333333333332,-0.21,-0.22
3145,8736.111111111111,-0.21,-0.23
3146,8738.888888888889,-0.22,-0.22
3147,8741.666666666668,-0.22,-0.22
3148,8744.444444444443,-0.2,-0.215
3149,8747.222222222223,-0.205,-0.225
3150,8750.0,-0.23,-0.23
3151,8752.777777777777,-0.25,-0.245
3152,8755.555555555557,-0.25,-0.22
3153,8758.333333333332,-0.24,-0.21
3154,8761.111111111111,-0.235,-0.21
3155,8763.888888888889,-0.235,-0.205
3156,8766.666666666668,-0.245,-0.215
3157,8769.444444444443,-0.27,-0.24
3158,8772.222222222223,-0.275,-0.23
3159,8775.0,-0.27,-0.22
3160,8777.77777777778,-0.265,-0.215
3161,8780.555555555555,-0.26,-0.23
3162,8783.333333333334,-0.27,-0.235
3163,8786.111111111111,-0.275,-0.235
3164,8788.88888888889,-0.275,-0.22
3165,8791.666666666666,-0.265,-0.225
3166,8794.444444444443,-0.245,-0.23
3167,8797.222222222223,-0.255,-0.215
3168,8800.0,-0.265,-0.23
3169,8802.777777777777,-0.28,-0.245
3170,8805.555555555555,-0.275,-0.23
3171,8808.333333333334,-0.27,-0.23
3172,8811.111111111111,-0.26,-0.22
3173,8813.888888888889,-0.26,-0.235
3174,8816.666666666666,-0.265,-0.235
3175,8819.444444444445,-0.285,-0.25
3176,8822.222222222223,-0.285,-0.245
3177,8825.0,-0.275,-0.235
3178,8827.777777777777,-0.26,-0.23
3179,8830.555555555557,-0.26,-0.215
3180,8833.333333333334,-0.265,-0.22
3181,8836.11111111111,-0.27,-0.205
3182,8838.888888888889,-0.26,-0.21
3183,8841.666666666666,-0.23,-0.24
3184,8844.444444444445,-0.195,-0.325
3185,8847.22222222222,-0.175,-0.41
3186,8850.0,-0.155,-0.485
3187,8852.777777777777,-0.12,-0.545
3188,8855.555555555557,-0.04,-0.62
3189,8858.333333333332,0.065,-0.675
3190,8861.111111111111,0.16,-0.785
3191,8863.888888888889,0.255,-0.915
3192,8866.666666666668,0.345,-1.025
3193,8869.444444444443,0.45,-1.07
3194,8872.222222222223,0.545,-1.05
3195,8875.0,0.61,-1.005
3196,8877.777777777777,0.675,-0.93
3197,8880.555555555557,0.73,-0.83
3198,8883.333333333332,0.745,-0.71
3199,8886.111111111111,0.68,-0.555
3200,8888.888888888889,0.585,-0.405
3201,8891.666666666668,0.46,-0.305
3202,8894.444444444443,0.32,-0.25
3203,8897.222222222223,0.155,-0.23
3204,8900.0,0.015,-0.255
3205,8902.77777777778,-0.055,-0.285
3206,8905.555555555555,-0.105,-0.275
3207,8908.333333333334,-0.135,-0.265
3208,8911.111111111111,-0.13,-0.255
3209,8913.88888888889,-0.135,-0.235
3210,8916.666666666666,-0.14,-0.245
3211,8919.444444444443,-0.155,-0.245
3212,8922.222222222223,-0.175,-0.235
3213,8925.0,-0.185,-0.23
3214,8927.777777777777,-0.185,-0.225
3215,8930.555555555555,-0.2,-0.235
3216,8933.333333333334,-0.215,-0.26
3217,8936.111111111111,-0.235,-0.255
3218,8938.888888888889,-0.245,-0.24
3219,8941.666666666666,-0.245,-0.235
3220,8944.444444444445,-0.24,-0.23
3221,8947.222222222223,-0.25,-0.23
3222,8950.0,-0.25,-0.245
3223,8952.777777777777,-0.28,-0.245
3224,8955.555555555557,-0.285,-0.25
3225,8958.333333333334,-0.275,-0.24
3226,8961.11111111111,-0.275,-0.23
3227,8963.888888888889,-0.275,-0.23
3228,8966.666666666666,-0.275,-0.24
3229,8969.444444444445,-0.285,-0.245
3230,8972.22222222222,-0.29,-0.24
3231,8975.0,-0.28,-0.235
3232,8977.777777777777,-0.275,-0.235
3233,8980.555555555557,-0.285,-0.26
3234,8983.333333333332,-0.285,-0.265
3235,8986.111111111111,-0.295,-0.275
3236,8988.888888888889,-0.29,-0.27
3237,8991.666666666668,-0.28,-0.255
3238,8994.444444444443,-0.285,-0.25
3239,8997.222222222223,-0.29,-0.26
3240,9000.0,-0.295,-0.265
3241,9002.777777777777,-0.295,-0.27
3242,9005.555555555557,-0.31,-0.26
3243,9008.333333333332,-0.3,-0.255
3244,9011.111111111111,-0.28,-0.245
3245,9013.888888888889,-0.285,-0.245
3246,9016.666666666668,-0.285,-0.255
3247,9019.444444444443,-0.29,-0.255
3248,9022.222222222223,-0.29,-0.26
3249,9025.0,-0.29,-0.25
3250,9027.77777777778,-0.275,-0.265
3251,9030.555555555555,-0.285,-0.26
3252,9033.333333333334,-0.265,-0.27
3253,9036.111111111111,-0.275,-0.265
3254,9038.88888888889,-0.27,-0.26
3255,9041.666666666666,-0.255,-0.245
3256,9044.444444444443,-0.24,-0.255
3257,9047.222222222223,-0.245,-0.25
3258,9050.0,-0.23,-0.245
3259,9052.777777777777,-0.235,-0.23
3260,9055.555555555555,-0.235,-0.235
3261,9058.333333333334,-0.215,-0.225
3262,9061.111111111111,-0.205,-0.22
3263,9063.888888888889,-0.205,-0.225
3264,9066.666666666666,-0.22,-0.235
3265,9069.444444444445,-0.245,-0.245
3266,9072.222222222223,-0.23,-0.23
3267,9075.0,-0.21,-0.215
3268,9077.777777777777,-0.205,-0.225
3269,9080.555555555557,-0.205,-0.23
3270,9083.333333333334,-0.215,-0.24
3271,9086.11111111111,-0.21,-0.25
3272,9088.888888888889,-0.195,-0.24
3273,9091.666666666666,-0.18,-0.245
3274,9094.444444444445,-0.165,-0.27
3275,9097.22222222222,-0.155,-0.275
3276,9100.0,-0.155,-0.305
3277,9102.777777777777,-0.14,-0.3
3278,9105.555555555557,-0.125,-0.295
3279,9108.333333333332,-0.105,-0.285
3280,9111.111111111111,-0.105,-0.29
3281,9113.888888888889,-0.1,-0.295
3282,9116.666666666668,-0.115,-0.315
3283,9119.444444444443,-0.135,-0.305
3284,9122.222222222223,-0.125,-0.29
3285,9125.0,-0.11,-0.29
3286,9127.777777777777,-0.1,-0.285
3287,9130.555555555557,-0.11,-0.275
3288,9133.333333333332,-0.115,-0.295
3289,9136.111111111111,-0.125,-0.285
3290,9138.888888888889,-0.13,-0.275
3291,9141.666666666668,-0.125,-0.265
3292,9144.444444444443,-0.115,-0.27
3293,9147.222222222223,-0.13,-0.265
3294,9150.0,-0.145,-0.29
3295,9152.77777777778,-0.16,-0.285
3296,9155.555555555555,-0.165,-0.275
3297,9158.333333333334,-0.17,-0.265
3298,9161.111111111111,-0.165,-0.25
3299,9163.88888888889,-0.17,-0.255
3300,9166.666666666666,-0.195,-0.26
3301,9169.444444444443,-0.215,-0.265
3302,9172.222222222223,-0.215,-0.25
3303,9175.0,-0.215,-0.235
3304,9177.777777777777,-0.22,-0.24
3305,9180.555555555555,-0.215,-0.235
3306,9183.333333333334,-0.23,-0.25
3307,9186.111111111111,-0.24,-0.255
3308,9188.888888888889,-0.255,-0.245
3309,9191.666666666666,-0.245,-0.23
3310,9194.444444444445,-0.245,-0.225
3311,9197.222222222223,-0.24,-0.225
3312,9200.0,-0.25,-0.24
3313,9202.777777777777,-0.265,-0.24
3314,9205.555555555557,-0.26,-0.23
3315,9208.333333333334,-0.235,-0.21
3316,9211.11111111111,-0.225,-0.21
3317,9213.888888888889,-0.225,-0.2
3318,9216.666666666666,-0.235,-0.23
3319,9219.444444444445,-0.26,-0.245
3320,9222.22222222222,-0.265,-0.23
3321,9225.0,-0.25,-0.21
3322,9227.777777777777,-0.24,-0.21
3323,9230.555555555557,-0.26,-0.21
3324,9233.333333333332,-0.26,-0.23
3325,9236.111111111111,-0.27,-0.215
3326,9238.888888888889,-0.27,-0.23
3327,9241.666666666668,-0.265,-0.205
3328,9244.444444444443,-0.25,-0.215
3329,9247.222222222223,-0.25,-0.23
3330,9250.0,-0.255,-0.25
3331,9252.777777777777,-0.27,-0.255
3332,9255.555555555557,-0.285,-0.26
3333,9258.333333333332,-0.275,-0.24
3334,9261.111111111111,-0.265,-0.24
3335,9263.888888888889,-0.28,-0.24
3336,9266.666666666668,-0.28,-0.255
3337,9269.444444444443,-0.285,-0.255
3338,9272.222222222223,-0.285,-0.25
3339,9275.0,-0.28,-0.235
3340,9277.77777777778,-0.27,-0.235
3341,9280.555555555555,-0.27,-0.24
3342,9283.333333333334,-0.26,-0.245
3343,9286.111111111111,-0.255,-0.24
3344,9288.88888888889,-0.25,-0.23
3345,9291.666666666666,-0.235,-0.22
3346,9294.444444444443,-0.22,-0.215
3347,9297.222222222223,-0.215,-0.215
3348,9300.0,-0.225,-0.22
3349,9302.777777777777,-0.24,-0.215
3350,9305.555555555555,-0.235,-0.21
3351,9308.333333333334,-0.23,-0.215
3352,9311.111111111111,-0.22,-0.21
3353,9313.888888888889,-0.22,-0.215
3354,9316.666666666666,-0.225,-0.23
3355,9319.444444444445,-0.24,-0.23
3356,9322.222222222223,-0.235,-0.235
3357,9325.0,-0.235,-0.235
3358,9327.777777777777,-0.22,-0.235
3359,9330.555555555557,-0.235,-0.245
3360,9333.333333333334,-0.245,-0.25
3361,9336.11111111111,-0.245,-0.25
3362,9338.888888888889,-0.255,-0.22
3363,9341.666666666666,-0.245,-0.215
3364,9344.444444444445,-0.23,-0.2
3365,9347.22222222222,-0.245,-0.205
3366,9350.0,-0.245,-0.21
3367,9352.777777777777,-0.255,-0.22
3368,9355.555555555557,-0.24,-0.205
3369,9358.333333333332,-0.235,-0.2
3370,9361.111111111111,-0.23,-0.205
3371,9363.888888888889,-0.235,-0.205
3372,9366.666666666668,-0.25,-0.21
3373,9369.444444444443,-0.255,-0.215
3374,9372.222222222223,-0.255,-0.215
3375,9375.0,-0.25,-0.21
3376,9377.777777777777,-0.245,-0.215
3377,9380.555555555557,-0.24,-0.225
3378,9383.333333333332,-0.26,-0.245
3379,9386.111111111111,-0.265,-0.25
3380,9388.888888888889,-0.28,-0.25
3381,9391.666666666668,-0.27,-0.24
3382,9394.444444444443,-0.27,-0.235
3383,9397.222222222223,-0.275,-0.245
3384,9400.0,-0.28,-0.255
3385,9402.77777777778,-0.28,-0.255
3386,9405.555555555555,-0.28,-0.255
3387,9408.333333333334,-0.28,-0.245
3388,9411.111111111111,-0.27,-0.24
3389,9413.88888888889,-0.28,-0.25
3390,9416.666666666666,-0.285,-0.275
3391,9419.444444444443,-0.29,-0.275
3392,9422.222222222223,-0.285,-0.27
3393,9425.0,-0.285,-0.265
3394,9427.777777777777,-0.28,-0.25
3395,9430.555555555555,-0.28,-0.275
3396,9433.333333333334,-0.285,-0.28
3397,9436.111111111111,-0.295,-0.29
3398,9438.888888888889,-0.295,-0.295
3399,9441.666666666666,-0.28,-0.275
3400,9444.444444444445,-0.27,-0.29
3401,9447.222222222223,-0.27,-0.285
3402,9450.0,-0.28,-0.29
3403,9452.777777777777,-0.285,-0.3
3404,9455.555555555557,-0.27,-0.28
3405,9458.333333333334,-0.27,-0.26
3406,9461.11111111111,-0.26,-0.25
3407,9463.888888888889,-0.265,-0.24
3408,9466.666666666666,-0.265,-0.25
3409,9469.444444444445,-0.265,-0.245
3410,9472.22222222222,-0.27,-0.24
3411,9475.0,-0.265,-0.24
3412,9477.777777777777,-0.255,-0.24
3413,9480.555555555557,-0.255,-0.24
3414,9483.333333333332,-0.265,-0.25
3415,9486.111111111111,-0.275,-0.25
3416,9488.888888888889,-0.265,-0.245
3417,9491.666666666668,-0.27,-0.23
3418,9494.444444444443,-0.26,-0.225
3419,9497.222222222223,-0.26,-0.225
3420,9500.0,-0.27,-0.23
3421,9502.777777777777,-0.275,-0.23
3422,9505.555555555557,-0.265,-0.22
3423,9508.333333333332,-0.25,-0.205
3424,9511.111111111111,-0.225,-0.2
3425,9513.888888888889,-0.235,-0.195
3426,9516.666666666668,-0.245,-0.205
3427,9519.444444444443,-0.27,-0.21
3428,9522.222222222223,-0.26,-0.2
3429,9525.0,-0.26,-0.205
3430,9527.77777777778,-0.245,-0.2
3431,9530.555555555555,-0.25,-0.205
3432,9533.333333333334,-0.255,-0.215
3433,9536.111111111111,-0.28,-0.225
3434,9538.88888888889,-0.275,-0.215
3435,9541.666666666666,-0.275,-0.21
3436,9544.444444444443,-0.265,-0.21
3437,9547.222222222223,-0.28,-0.21
3438,9550.0,-0.285,-0.225
3439,9552.777777777777,-0.29,-0.215
3440,9555.555555555555,-0.285,-0.215
3441,9558.333333333334,-0.275,-0.195
3442,9561.111111111111,-0.27,-0.2
3443,9563.888888888889,-0.265,-0.22
3444,9566.666666666666,-0.29,-0.23
3445,9569.444444444445,-0.295,-0.245
3446,9572.222222222223,-0.3,-0.24
3447,9575.0,-0.29,-0.225
3448,9577.777777777777,-0.27,-0.23
3449,9580.555555555557,-0.275,-0.23
3450,9583.333333333334,-0.29,-0.235
3451,9586.11111111111,-0.295,-0.25
3452,9588.888888888889,-0.29,-0.235
3453,9591.666666666666,-0.27,-0.195
3454,9594.444444444445,-0.255,-0.195
3455,9597.22222222222,-0.25,-0.22
3456,9600.0,-0.23,-0.295
3457,9602.777777777777,-0.22,-0.375
3458,9605.555555555557,-0.2,-0.465
3459,9608.333333333332,-0.16,-0.52
3460,9611.111111111111,-0.13,-0.59
3461,9613.888888888889,-0.06,-0.67
3462,9616.666666666668,0.025,-0.75
3463,9619.444444444443,0.105,-0.85
3464,9622.222222222223,0.195,-0.95
3465,9625.0,0.295,-1.035
3466,9627.777777777777,0.42,-1.09
3467,9630.555555555557,0.55,-1.095
3468,9633.333333333332,0.635,-1.065
3469,9636.111111111111,0.675,-1.02
3470,9638.888888888889,0.745,-0.935
3471,9641.666666666668,0.795,-0.81
3472,9644.444444444443,0.785,-0.64
3473,9647.222222222223,0.695,-0.49
3474,9650.0,0.56,-0.38
3475,9652.77777777778,0.39,-0.33
3476,9655.555555555555,0.19,-0.3
3477,9658.333333333334,0.04,-0.3
3478,9661.111111111111,-0.055,-0.305
3479,9663.88888888889,-0.1,-0.305
3480,9666.666666666666,-0.135,-0.31
