,time_ms,MLII,V2
0,0.0,-0.925,-0.47
1,2.7777777777777777,-0.925,-0.47
2,5.555555555555555,-0.925,-0.47
3,8.333333333333334,-0.925,-0.47
4,11.11111111111111,-0.925,-0.47
5,13.888888888888888,-0.925,-0.47
6,16.666666666666668,-0.925,-0.47
7,19.444444444444446,-0.92,-0.47
8,22.22222222222222,-0.92,-0.47
9,25.0,-0.94,-0.485
10,27.777777777777775,-0.94,-0.49
11,30.555555555555554,-0.955,-0.51
12,33.333333333333336,-0.97,-0.515
13,36.11111111111111,-0.97,-0.515
14,38.88888888888889,-0.98,-0.515
15,41.666666666666664,-0.98,-0.505
16,44.44444444444444,-0.965,-0.5
17,47.22222222222222,-0.95,-0.505
18,50.0,-0.94,-0.48
19,52.77777777777778,-0.91,-0.475
20,55.55555555555555,-0.925,-0.505
21,58.333333333333336,-0.93,-0.5
22,61.11111111111111,-0.945,-0.53
23,63.888888888888886,-0.95,-0.51
24,66.66666666666667,-0.96,-0.53
25,69.44444444444444,-0.96,-0.535
26,72.22222222222221,-0.965,-0.515
27,75.0,-0.97,-0.525
28,77.77777777777779,-0.965,-0.51
29,80.55555555555556,-0.97,-0.505
30,83.33333333333333,-0.985,-0.495
31,86.11111111111111,-0.95,-0.5
32,88.88888888888889,-0.95,-0.525
33,91.66666666666666,-0.95,-0.505
34,94.44444444444444,-0.93,-0.525
35,97.22222222222223,-0.925,-0.54
36,100.0,-0.94,-0.535
37,102.77777777777777,-0.95,-0.545
38,105.55555555555556,-0.97,-0.54
39,108.33333333333334,-0.955,-0.54
40,111.1111111111111,-0.96,-0.515
41,113.88888888888889,-0.96,-0.505
42,116.66666666666667,-0.945,-0.505
43,119.44444444444446,-0.93,-0.51
44,122.22222222222221,-0.925,-0.505
45,125.0,-0.94,-0.52
46,127.77777777777777,-0.94,-0.525
47,130.55555555555557,-0.94,-0.525
48,133.33333333333334,-0.955,-0.545
49,136.1111111111111,-0.95,-0.545
50,138.88888888888889,-0.98,-0.55
51,141.66666666666666,-0.96,-0.53
52,144.44444444444443,-0.965,-0.53
53,147.22222222222223,-0.945,-0.51
54,150.0,-0.95,-0.515
55,152.7777777777778,-0.945,-0.5
56,155.55555555555557,-0.945,-0.51
57,158.33333333333331,-0.955,-0.525
58,161.11111111111111,-0.96,-0.53
59,163.88888888888889,-0.955,-0.53
60,166.66666666666666,-0.97,-0.545
61,169.44444444444446,-0.98,-0.555
62,172.22222222222223,-0.97,-0.54
63,175.0,-0.975,-0.52
64,177.77777777777777,-0.965,-0.525
65,180.55555555555554,-0.95,-0.515
66,183.33333333333331,-0.95,-0.515
67,186.11111111111111,-0.935,-0.51
68,188.88888888888889,-0.93,-0.515
69,191.66666666666669,-0.93,-0.525
70,194.44444444444446,-0.94,-0.535
71,197.22222222222223,-0.935,-0.55
72,200.0,-0.95,-0.57
73,202.77777777777777,-0.97,-0.555
74,205.55555555555554,-0.965,-0.56
75,208.33333333333334,-0.965,-0.555
76,211.11111111111111,-0.97,-0.53
77,213.88888888888889,-0.97,-0.52
78,216.66666666666669,-0.96,-0.52
79,219.44444444444443,-0.93,-0.52
80,222.2222222222222,-0.95,-0.53
81,225.0,-0.96,-0.525
82,227.77777777777777,-0.975,-0.545
83,230.55555555555557,-0.955,-0.535
84,233.33333333333334,-0.96,-0.565
85,236.11111111111111,-0.96,-0.56
86,238.8888888888889,-0.96,-0.56
87,241.66666666666666,-0.97,-0.55
88,244.44444444444443,-0.955,-0.535
89,247.22222222222223,-0.94,-0.52
90,250.0,-0.94,-0.525
91,252.77777777777777,-0.93,-0.525
92,255.55555555555554,-0.925,-0.51
93,258.33333333333337,-0.93,-0.53
94,261.11111111111114,-0.925,-0.535
95,263.8888888888889,-0.935,-0.555
96,266.6666666666667,-0.96,-0.58
97,269.44444444444446,-0.95,-0.56
98,272.2222222222222,-0.96,-0.575
99,275.0,-0.955,-0.57
100,277.77777777777777,-0.945,-0.535
101,280.55555555555554,-0.94,-0.555
102,283.3333333333333,-0.925,-0.55
103,286.1111111111111,-0.92,-0.52
104,288.88888888888886,-0.925,-0.55
105,291.6666666666667,-0.92,-0.535
106,294.44444444444446,-0.925,-0.555
107,297.22222222222223,-0.935,-0.555
108,300.0,-0.935,-0.57
109,302.77777777777777,-0.935,-0.565
110,305.5555555555556,-0.96,-0.57
111,308.33333333333337,-0.945,-0.545
112,311.11111111111114,-0.905,-0.55
113,313.88888888888886,-0.885,-0.54
114,316.66666666666663,-0.855,-0.525
115,319.4444444444444,-0.825,-0.51
116,322.22222222222223,-0.825,-0.53
117,325.0,-0.815,-0.535
118,327.77777777777777,-0.825,-0.535
119,330.55555555555554,-0.81,-0.55
120,333.3333333333333,-0.835,-0.555
121,336.11111111111114,-0.835,-0.53
122,338.8888888888889,-0.835,-0.515
123,341.6666666666667,-0.785,-0.495
124,344.44444444444446,-0.78,-0.48
125,347.22222222222223,-0.76,-0.45
126,350.0,-0.75,-0.435
127,352.7777777777778,-0.76,-0.415
128,355.55555555555554,-0.745,-0.4
129,358.3333333333333,-0.75,-0.39
130,361.1111111111111,-0.775,-0.39
131,363.88888888888886,-0.78,-0.365
132,366.66666666666663,-0.8,-0.36
133,369.44444444444446,-0.825,-0.355
134,372.22222222222223,-0.845,-0.36
135,375.0,-0.84,-0.36
136,377.77777777777777,-0.835,-0.355
137,380.55555555555554,-0.825,-0.35
138,383.33333333333337,-0.835,-0.345
139,386.11111111111114,-0.85,-0.345
140,388.8888888888889,-0.865,-0.375
141,391.6666666666667,-0.895,-0.38
142,394.44444444444446,-0.92,-0.415
143,397.2222222222222,-0.93,-0.43
144,400.0,-0.94,-0.47
145,402.77777777777777,-0.945,-0.49
146,405.55555555555554,-0.955,-0.495
147,408.3333333333333,-0.98,-0.49
148,411.1111111111111,-0.97,-0.505
149,413.88888888888886,-0.97,-0.5
150,416.6666666666667,-0.97,-0.475
151,419.44444444444446,-0.935,-0.485
152,422.22222222222223,-0.965,-0.48
153,425.0,-0.96,-0.51
154,427.77777777777777,-0.96,-0.515
155,430.5555555555556,-0.965,-0.545
156,433.33333333333337,-0.985,-0.545
157,436.11111111111114,-0.985,-0.555
158,438.88888888888886,-0.99,-0.55
159,441.66666666666663,-0.995,-0.54
160,444.4444444444444,-0.975,-0.53
161,447.22222222222223,-0.985,-0.52
162,450.0,-0.97,-0.52
163,452.77777777777777,-0.955,-0.51
164,455.55555555555554,-0.945,-0.535
165,458.3333333333333,-0.945,-0.535
166,461.11111111111114,-0.955,-0.55
167,463.8888888888889,-0.95,-0.565
168,466.6666666666667,-0.97,-0.56
169,469.44444444444446,-0.985,-0.585
170,472.22222222222223,-0.975,-0.575
171,475.0,-0.95,-0.545
172,477.7777777777778,-0.905,-0.55
173,480.55555555555554,-0.83,-0.535
174,483.3333333333333,-0.75,-0.5
175,486.1111111111111,-0.62,-0.425
176,488.88888888888886,-0.5,-0.285
177,491.66666666666663,-0.34,-0.095
178,494.44444444444446,-0.175,0.12
179,497.22222222222223,-0.035,0.37
180,500.0,0.03,0.625
181,502.77777777777777,0.01,0.89
182,505.55555555555554,-0.11,1.085
183,508.3333333333333,-0.33,1.19
184,511.1111111111111,-0.58,1.175
185,513.8888888888888,-0.865,1.005
186,516.6666666666667,-1.155,0.72
187,519.4444444444445,-1.415,0.38
188,522.2222222222223,-1.625,-0.06
189,525.0,-1.755,-0.425
190,527.7777777777778,-1.76,-0.725
191,530.5555555555555,-1.68,-0.865
192,533.3333333333334,-1.565,-0.86
193,536.1111111111111,-1.445,-0.785
194,538.8888888888889,-1.33,-0.68
195,541.6666666666666,-1.245,-0.585
196,544.4444444444443,-1.165,-0.53
197,547.2222222222223,-1.1,-0.515
198,550.0,-1.015,-0.495
199,552.7777777777778,-0.94,-0.485
200,555.5555555555555,-0.885,-0.475
201,558.3333333333334,-0.86,-0.49
202,561.1111111111111,-0.865,-0.49
203,563.8888888888889,-0.87,-0.49
204,566.6666666666666,-0.885,-0.49
205,569.4444444444445,-0.89,-0.505
206,572.2222222222222,-0.905,-0.5
207,575.0,-0.91,-0.49
208,577.7777777777777,-0.89,-0.485
209,580.5555555555557,-0.85,-0.475
210,583.3333333333334,-0.845,-0.45
211,586.1111111111111,-0.835,-0.46
212,588.8888888888889,-0.845,-0.45
213,591.6666666666666,-0.835,-0.465
214,594.4444444444445,-0.84,-0.47
215,597.2222222222222,-0.85,-0.485
216,600.0,-0.83,-0.49
217,602.7777777777777,-0.845,-0.495
218,605.5555555555555,-0.845,-0.485
219,608.3333333333333,-0.855,-0.475
220,611.1111111111112,-0.82,-0.455
221,613.8888888888889,-0.81,-0.435
222,616.6666666666667,-0.81,-0.435
223,619.4444444444445,-0.79,-0.44
224,622.2222222222223,-0.785,-0.435
225,625.0,-0.785,-0.445
226,627.7777777777777,-0.775,-0.435
227,630.5555555555555,-0.79,-0.45
228,633.3333333333333,-0.78,-0.445
229,636.1111111111111,-0.8,-0.445
230,638.8888888888888,-0.785,-0.435
231,641.6666666666667,-0.785,-0.45
232,644.4444444444445,-0.78,-0.42
233,647.2222222222223,-0.76,-0.41
234,650.0,-0.755,-0.39
235,652.7777777777778,-0.73,-0.395
236,655.5555555555555,-0.72,-0.385
237,658.3333333333334,-0.72,-0.4
238,661.1111111111111,-0.725,-0.415
239,663.8888888888889,-0.73,-0.405
240,666.6666666666666,-0.725,-0.415
241,669.4444444444443,-0.725,-0.4
242,672.2222222222223,-0.72,-0.405
243,675.0,-0.74,-0.38
244,677.7777777777778,-0.725,-0.365
245,680.5555555555555,-0.705,-0.35
246,683.3333333333334,-0.685,-0.335
247,686.1111111111111,-0.66,-0.335
248,688.8888888888889,-0.68,-0.315
249,691.6666666666666,-0.665,-0.305
250,694.4444444444445,-0.655,-0.325
251,697.2222222222222,-0.645,-0.325
252,700.0,-0.65,-0.325
253,702.7777777777777,-0.625,-0.3
254,705.5555555555557,-0.63,-0.29
255,708.3333333333334,-0.615,-0.265
256,711.1111111111111,-0.59,-0.24
257,713.8888888888889,-0.57,-0.215
258,716.6666666666666,-0.56,-0.175
259,719.4444444444445,-0.53,-0.18
260,722.2222222222222,-0.515,-0.16
261,725.0,-0.505,-0.14
262,727.7777777777777,-0.485,-0.14
263,730.5555555555555,-0.47,-0.135
264,733.3333333333333,-0.48,-0.135
265,736.1111111111112,-0.45,-0.12
266,738.8888888888889,-0.45,-0.085
267,741.6666666666667,-0.44,-0.065
268,744.4444444444445,-0.395,-0.035
269,747.2222222222223,-0.38,-0.01
270,750.0,-0.335,0.02
271,752.7777777777777,-0.305,0.055
272,755.5555555555555,-0.305,0.05
273,758.3333333333333,-0.29,0.07
274,761.1111111111111,-0.275,0.065
275,763.8888888888888,-0.275,0.09
276,766.6666666666667,-0.25,0.07
277,769.4444444444445,-0.255,0.08
278,772.2222222222223,-0.25,0.1
279,775.0,-0.24,0.125
280,777.7777777777778,-0.22,0.145
281,780.5555555555555,-0.2,0.165
282,783.3333333333334,-0.195,0.185
283,786.1111111111111,-0.175,0.185
284,788.8888888888889,-0.17,0.195
285,791.6666666666666,-0.17,0.185
286,794.4444444444443,-0.175,0.19
287,797.2222222222223,-0.18,0.175
288,800.0,-0.195,0.17
289,802.7777777777778,-0.195,0.165
290,805.5555555555555,-0.23,0.135
291,808.3333333333334,-0.235,0.125
292,811.1111111111111,-0.265,0.14
293,813.8888888888889,-0.265,0.125
294,816.6666666666666,-0.28,0.115
295,819.4444444444445,-0.3,0.075
296,822.2222222222222,-0.335,0.03
297,825.0,-0.36,0.0
298,827.7777777777777,-0.4,-0.035
299,830.5555555555557,-0.43,-0.085
300,833.3333333333334,-0.47,-0.125
301,836.1111111111111,-0.505,-0.17
302,838.8888888888889,-0.54,-0.2
303,841.6666666666666,-0.565,-0.225
304,844.4444444444445,-0.59,-0.25
305,847.2222222222222,-0.61,-0.28
306,850.0,-0.63,-0.3
307,852.7777777777777,-0.65,-0.325
308,855.5555555555555,-0.665,-0.37
309,858.3333333333333,-0.69,-0.4
310,861.1111111111112,-0.735,-0.43
311,863.8888888888889,-0.75,-0.45
312,866.6666666666667,-0.775,-0.485
313,869.4444444444445,-0.795,-0.495
314,872.2222222222223,-0.79,-0.495
315,875.0,-0.82,-0.525
316,877.7777777777777,-0.81,-0.49
317,880.5555555555555,-0.81,-0.51
318,883.3333333333333,-0.81,-0.5
319,886.1111111111111,-0.815,-0.515
320,888.8888888888888,-0.815,-0.515
321,891.6666666666667,-0.82,-0.55
322,894.4444444444445,-0.825,-0.545
323,897.2222222222223,-0.845,-0.555
324,900.0,-0.865,-0.57
325,902.7777777777778,-0.87,-0.56
326,905.5555555555555,-0.89,-0.565
327,908.3333333333334,-0.885,-0.565
328,911.1111111111111,-0.875,-0.545
329,913.8888888888889,-0.87,-0.55
330,916.6666666666666,-0.87,-0.545
331,919.4444444444443,-0.85,-0.545
332,922.2222222222223,-0.86,-0.545
333,925.0,-0.855,-0.55
334,927.7777777777778,-0.855,-0.57
335,930.5555555555555,-0.86,-0.575
336,933.3333333333334,-0.87,-0.57
337,936.1111111111111,-0.87,-0.58
338,938.8888888888889,-0.87,-0.575
339,941.6666666666666,-0.865,-0.57
340,944.4444444444445,-0.865,-0.565
341,947.2222222222222,-0.85,-0.54
342,950.0,-0.84,-0.525
343,952.7777777777777,-0.845,-0.525
344,955.5555555555557,-0.82,-0.53
345,958.3333333333334,-0.86,-0.52
346,961.1111111111111,-0.87,-0.555
347,963.8888888888889,-0.86,-0.555
348,966.6666666666666,-0.865,-0.555
349,969.4444444444445,-0.87,-0.55
350,972.2222222222222,-0.865,-0.55
351,975.0,-0.86,-0.535
352,977.7777777777777,-0.845,-0.53
353,980.5555555555555,-0.84,-0.53
354,983.3333333333333,-0.82,-0.505
355,986.1111111111112,-0.82,-0.505
356,988.8888888888889,-0.82,-0.52
357,991.6666666666667,-0.83,-0.51
358,994.4444444444445,-0.825,-0.53
359,997.2222222222223,-0.835,-0.53
360,1000.0,-0.85,-0.545
361,1002.7777777777777,-0.87,-0.55
362,1005.5555555555555,-0.875,-0.56
363,1008.3333333333333,-0.875,-0.53
364,1011.1111111111111,-0.88,-0.535
365,1013.8888888888888,-0.875,-0.525
366,1016.6666666666666,-0.875,-0.525
367,1019.4444444444443,-0.865,-0.535
368,1022.2222222222222,-0.855,-0.525
369,1025.0,-0.855,-0.525
370,1027.7777777777776,-0.865,-0.545
371,1030.5555555555554,-0.88,-0.55
372,1033.3333333333335,-0.875,-0.56
373,1036.1111111111113,-0.89,-0.595
374,1038.888888888889,-0.895,-0.58
375,1041.6666666666667,-0.9,-0.58
376,1044.4444444444446,-0.89,-0.57
377,1047.2222222222222,-0.895,-0.555
378,1050.0,-0.885,-0.55
379,1052.7777777777778,-0.885,-0.555
380,1055.5555555555557,-0.885,-0.555
381,1058.3333333333333,-0.89,-0.575
382,1061.111111111111,-0.9,-0.595
383,1063.888888888889,-0.915,-0.6
384,1066.6666666666667,-0.915,-0.62
385,1069.4444444444443,-0.92,-0.625
386,1072.2222222222222,-0.935,-0.61
387,1075.0,-0.92,-0.605
388,1077.7777777777778,-0.925,-0.595
389,1080.5555555555554,-0.905,-0.58
390,1083.3333333333333,-0.9,-0.59
391,1086.111111111111,-0.895,-0.565
392,1088.8888888888887,-0.905,-0.585
393,1091.6666666666665,-0.915,-0.6
394,1094.4444444444446,-0.93,-0.605
395,1097.2222222222224,-0.93,-0.61
396,1100.0,-0.95,-0.61
397,1102.7777777777778,-0.945,-0.62
398,1105.5555555555557,-0.975,-0.625
399,1108.3333333333335,-0.955,-0.605
400,1111.111111111111,-0.93,-0.61
401,1113.888888888889,-0.935,-0.605
402,1116.6666666666667,-0.91,-0.59
403,1119.4444444444446,-0.905,-0.59
404,1122.2222222222222,-0.895,-0.595
405,1125.0,-0.91,-0.595
406,1127.7777777777778,-0.905,-0.615
407,1130.5555555555554,-0.915,-0.615
408,1133.3333333333333,-0.915,-0.62
409,1136.111111111111,-0.935,-0.615
410,1138.888888888889,-0.93,-0.64
411,1141.6666666666665,-0.935,-0.62
412,1144.4444444444443,-0.93,-0.6
413,1147.2222222222222,-0.92,-0.605
414,1150.0,-0.915,-0.59
415,1152.7777777777776,-0.905,-0.6
416,1155.5555555555554,-0.92,-0.6
417,1158.3333333333335,-0.92,-0.6
418,1161.1111111111113,-0.925,-0.62
419,1163.888888888889,-0.915,-0.625
420,1166.6666666666667,-0.93,-0.64
421,1169.4444444444446,-0.94,-0.62
422,1172.2222222222222,-0.945,-0.62
423,1175.0,-0.95,-0.615
424,1177.7777777777778,-0.93,-0.59
425,1180.5555555555557,-0.92,-0.615
426,1183.3333333333333,-0.92,-0.59
427,1186.111111111111,-0.91,-0.58
428,1188.888888888889,-0.92,-0.585
429,1191.6666666666667,-0.915,-0.605
430,1194.4444444444443,-0.92,-0.625
431,1197.2222222222222,-0.94,-0.62
432,1200.0,-0.95,-0.65
433,1202.7777777777778,-0.945,-0.65
434,1205.5555555555554,-0.94,-0.63
435,1208.3333333333333,-0.945,-0.635
436,1211.111111111111,-0.945,-0.62
437,1213.8888888888887,-0.94,-0.615
438,1216.6666666666665,-0.925,-0.61
439,1219.4444444444446,-0.93,-0.615
440,1222.2222222222224,-0.92,-0.62
441,1225.0,-0.925,-0.635
442,1227.7777777777778,-0.935,-0.635
443,1230.5555555555557,-0.935,-0.64
444,1233.3333333333335,-0.945,-0.64
445,1236.111111111111,-0.945,-0.675
446,1238.888888888889,-0.975,-0.66
447,1241.6666666666667,-0.975,-0.665
448,1244.4444444444446,-0.96,-0.65
449,1247.2222222222222,-0.935,-0.635
450,1250.0,-0.925,-0.63
451,1252.7777777777778,-0.915,-0.635
452,1255.5555555555554,-0.925,-0.625
453,1258.3333333333333,-0.925,-0.635
454,1261.111111111111,-0.92,-0.645
455,1263.888888888889,-0.925,-0.655
456,1266.6666666666665,-0.935,-0.67
457,1269.4444444444443,-0.935,-0.665
458,1272.2222222222222,-0.95,-0.665
459,1275.0,-0.94,-0.665
460,1277.7777777777776,-0.935,-0.645
461,1280.5555555555554,-0.925,-0.645
462,1283.3333333333335,-0.925,-0.635
463,1286.1111111111113,-0.915,-0.62
464,1288.888888888889,-0.92,-0.62
465,1291.6666666666667,-0.925,-0.635
466,1294.4444444444446,-0.92,-0.62
467,1297.2222222222222,-0.935,-0.62
468,1300.0,-0.945,-0.62
469,1302.7777777777778,-0.955,-0.62
470,1305.5555555555557,-0.955,-0.635
471,1308.3333333333333,-0.955,-0.625
472,1311.111111111111,-0.95,-0.605
473,1313.888888888889,-0.93,-0.59
474,1316.6666666666667,-0.93,-0.585
475,1319.4444444444443,-0.915,-0.58
476,1322.2222222222222,-0.92,-0.59
477,1325.0,-0.93,-0.595
478,1327.7777777777778,-0.945,-0.615
479,1330.5555555555554,-0.955,-0.615
480,1333.3333333333333,-0.97,-0.615
481,1336.111111111111,-0.98,-0.62
482,1338.8888888888887,-0.96,-0.62
483,1341.6666666666665,-0.975,-0.645
484,1344.4444444444446,-0.945,-0.61
485,1347.2222222222224,-0.94,-0.61
486,1350.0,-0.935,-0.595
487,1352.7777777777778,-0.915,-0.585
488,1355.5555555555557,-0.92,-0.6
489,1358.3333333333335,-0.93,-0.61
490,1361.111111111111,-0.925,-0.615
491,1363.888888888889,-0.94,-0.62
492,1366.6666666666667,-0.94,-0.63
493,1369.4444444444446,-0.935,-0.64
494,1372.2222222222222,-0.945,-0.625
495,1375.0,-0.94,-0.645
496,1377.7777777777778,-0.935,-0.605
497,1380.5555555555554,-0.925,-0.605
498,1383.3333333333333,-0.92,-0.59
499,1386.111111111111,-0.92,-0.605
500,1388.888888888889,-0.915,-0.605
501,1391.6666666666665,-0.93,-0.61
502,1394.4444444444443,-0.92,-0.615
503,1397.2222222222222,-0.92,-0.625
504,1400.0,-0.93,-0.64
505,1402.7777777777776,-0.94,-0.64
506,1405.5555555555554,-0.945,-0.615
507,1408.3333333333335,-0.935,-0.62
508,1411.1111111111113,-0.93,-0.61
509,1413.888888888889,-0.925,-0.605
510,1416.6666666666667,-0.915,-0.6
511,1419.4444444444446,-0.91,-0.595
512,1422.2222222222222,-0.905,-0.6
513,1425.0,-0.905,-0.615
514,1427.7777777777778,-0.915,-0.63
515,1430.5555555555557,-0.935,-0.625
516,1433.3333333333333,-0.935,-0.635
517,1436.111111111111,-0.945,-0.635
518,1438.888888888889,-0.93,-0.63
519,1441.6666666666667,-0.905,-0.62
520,1444.4444444444443,-0.885,-0.625
521,1447.2222222222222,-0.86,-0.615
522,1450.0,-0.845,-0.6
523,1452.7777777777778,-0.815,-0.595
524,1455.5555555555554,-0.81,-0.605
525,1458.3333333333333,-0.8,-0.605
526,1461.111111111111,-0.805,-0.615
527,1463.8888888888887,-0.83,-0.605
528,1466.6666666666665,-0.82,-0.605
529,1469.4444444444446,-0.825,-0.595
530,1472.2222222222224,-0.8,-0.59
531,1475.0,-0.795,-0.57
532,1477.7777777777778,-0.785,-0.555
533,1480.5555555555557,-0.76,-0.525
534,1483.3333333333335,-0.735,-0.505
535,1486.111111111111,-0.72,-0.49
536,1488.888888888889,-0.725,-0.465
537,1491.6666666666667,-0.74,-0.465
538,1494.4444444444446,-0.75,-0.45
539,1497.2222222222222,-0.77,-0.445
540,1500.0,-0.8,-0.47
541,1502.7777777777778,-0.81,-0.48
542,1505.5555555555554,-0.82,-0.475
543,1508.3333333333333,-0.81,-0.47
544,1511.111111111111,-0.825,-0.48
545,1513.888888888889,-0.825,-0.46
546,1516.6666666666665,-0.845,-0.46
547,1519.4444444444443,-0.84,-0.465
548,1522.2222222222222,-0.875,-0.505
549,1525.0,-0.885,-0.515
550,1527.7777777777776,-0.92,-0.525
551,1530.5555555555554,-0.925,-0.565
552,1533.3333333333335,-0.945,-0.585
553,1536.1111111111113,-0.95,-0.62
554,1538.888888888889,-0.95,-0.615
555,1541.6666666666667,-0.955,-0.635
556,1544.4444444444446,-0.945,-0.615
557,1547.2222222222222,-0.945,-0.62
558,1550.0,-0.94,-0.62
559,1552.7777777777778,-0.925,-0.61
560,1555.5555555555557,-0.93,-0.625
561,1558.3333333333333,-0.945,-0.62
562,1561.111111111111,-0.945,-0.65
563,1563.888888888889,-0.95,-0.645
564,1566.6666666666667,-0.96,-0.67
565,1569.4444444444443,-0.98,-0.67
566,1572.2222222222222,-0.97,-0.68
567,1575.0,-0.97,-0.66
568,1577.7777777777778,-0.97,-0.675
569,1580.5555555555554,-0.96,-0.645
570,1583.3333333333333,-0.96,-0.635
571,1586.111111111111,-0.945,-0.65
572,1588.8888888888887,-0.955,-0.625
573,1591.6666666666665,-0.95,-0.64
574,1594.4444444444446,-0.955,-0.63
575,1597.2222222222224,-0.965,-0.635
576,1600.0,-0.96,-0.655
577,1602.7777777777778,-0.96,-0.66
578,1605.5555555555557,-0.955,-0.66
579,1608.3333333333335,-0.945,-0.64
580,1611.111111111111,-0.92,-0.635
581,1613.888888888889,-0.91,-0.635
582,1616.6666666666667,-0.86,-0.635
583,1619.4444444444446,-0.785,-0.61
584,1622.2222222222222,-0.715,-0.58
585,1625.0,-0.6,-0.495
586,1627.7777777777778,-0.49,-0.38
587,1630.5555555555554,-0.355,-0.2
588,1633.3333333333333,-0.225,0.035
589,1636.111111111111,-0.1,0.28
590,1638.888888888889,-0.045,0.55
591,1641.6666666666665,-0.09,0.8
592,1644.4444444444443,-0.21,0.975
593,1647.2222222222222,-0.43,1.06
594,1650.0,-0.69,1.005
595,1652.7777777777776,-0.97,0.82
596,1655.5555555555554,-1.24,0.51
597,1658.3333333333335,-1.49,0.105
598,1661.1111111111113,-1.665,-0.31
599,1663.888888888889,-1.73,-0.66
600,1666.6666666666667,-1.7,-0.895
601,1669.4444444444446,-1.6,-0.975
602,1672.2222222222222,-1.49,-0.94
603,1675.0,-1.375,-0.84
604,1677.7777777777778,-1.275,-0.745
605,1680.5555555555557,-1.2,-0.69
606,1683.3333333333333,-1.12,-0.62
607,1686.111111111111,-1.035,-0.615
608,1688.888888888889,-0.98,-0.61
609,1691.6666666666667,-0.93,-0.605
610,1694.4444444444443,-0.885,-0.595
611,1697.2222222222222,-0.89,-0.59
612,1700.0,-0.89,-0.585
613,1702.7777777777778,-0.87,-0.59
614,1705.5555555555554,-0.895,-0.6
615,1708.3333333333333,-0.91,-0.605
616,1711.111111111111,-0.895,-0.595
617,1713.8888888888887,-0.87,-0.575
618,1716.6666666666665,-0.855,-0.58
619,1719.4444444444446,-0.84,-0.565
620,1722.2222222222224,-0.82,-0.585
621,1725.0,-0.83,-0.56
622,1727.7777777777778,-0.82,-0.585
623,1730.5555555555557,-0.835,-0.575
624,1733.3333333333335,-0.845,-0.59
625,1736.111111111111,-0.84,-0.585
626,1738.888888888889,-0.845,-0.57
627,1741.6666666666667,-0.835,-0.59
628,1744.4444444444446,-0.83,-0.565
629,1747.2222222222222,-0.83,-0.57
630,1750.0,-0.81,-0.54
631,1752.7777777777778,-0.79,-0.545
632,1755.5555555555554,-0.79,-0.54
633,1758.3333333333333,-0.79,-0.555
634,1761.111111111111,-0.79,-0.565
635,1763.888888888889,-0.8,-0.565
636,1766.6666666666665,-0.8,-0.565
637,1769.4444444444443,-0.8,-0.57
638,1772.2222222222222,-0.8,-0.555
639,1775.0,-0.81,-0.535
640,1777.7777777777776,-0.785,-0.535
641,1780.5555555555554,-0.78,-0.52
642,1783.3333333333335,-0.775,-0.52
643,1786.1111111111113,-0.755,-0.495
644,1788.888888888889,-0.755,-0.515
645,1791.6666666666667,-0.76,-0.505
646,1794.4444444444446,-0.755,-0.5
647,1797.2222222222222,-0.755,-0.535
648,1800.0,-0.76,-0.53
649,1802.7777777777778,-0.77,-0.535
650,1805.5555555555557,-0.755,-0.49
651,1808.3333333333333,-0.765,-0.495
652,1811.111111111111,-0.755,-0.47
653,1813.888888888889,-0.745,-0.47
654,1816.6666666666667,-0.73,-0.475
655,1819.4444444444443,-0.705,-0.46
656,1822.2222222222222,-0.74,-0.455
657,1825.0,-0.71,-0.455
658,1827.7777777777778,-0.705,-0.45
659,1830.5555555555554,-0.715,-0.47
660,1833.3333333333333,-0.71,-0.47
661,1836.111111111111,-0.71,-0.45
662,1838.8888888888887,-0.705,-0.46
663,1841.6666666666665,-0.69,-0.44
664,1844.4444444444446,-0.665,-0.415
665,1847.2222222222224,-0.645,-0.395
666,1850.0,-0.61,-0.375
667,1852.7777777777778,-0.595,-0.365
668,1855.5555555555557,-0.59,-0.36
669,1858.3333333333335,-0.595,-0.365
670,1861.111111111111,-0.58,-0.365
671,1863.888888888889,-0.575,-0.355
672,1866.6666666666667,-0.565,-0.345
673,1869.4444444444446,-0.56,-0.33
674,1872.2222222222222,-0.55,-0.315
675,1875.0,-0.53,-0.295
676,1877.7777777777778,-0.515,-0.255
677,1880.5555555555554,-0.48,-0.225
678,1883.3333333333333,-0.465,-0.205
679,1886.111111111111,-0.43,-0.18
680,1888.888888888889,-0.405,-0.165
681,1891.6666666666665,-0.375,-0.155
682,1894.4444444444443,-0.39,-0.14
683,1897.2222222222222,-0.38,-0.13
684,1900.0,-0.365,-0.12
685,1902.7777777777776,-0.345,-0.105
686,1905.5555555555554,-0.345,-0.085
687,1908.3333333333335,-0.315,-0.075
688,1911.1111111111113,-0.3,-0.035
689,1913.888888888889,-0.28,-0.025
690,1916.6666666666667,-0.25,-0.005
691,1919.4444444444446,-0.25,0.01
692,1922.2222222222222,-0.24,0.03
693,1925.0,-0.23,0.015
694,1927.7777777777778,-0.225,0.015
695,1930.5555555555557,-0.22,0.02
696,1933.3333333333333,-0.235,0.005
697,1936.111111111111,-0.235,0.015
698,1938.888888888889,-0.23,0.01
699,1941.6666666666667,-0.225,0.015
700,1944.4444444444443,-0.245,0.035
701,1947.2222222222222,-0.24,0.035
702,1950.0,-0.25,0.055
703,1952.7777777777778,-0.25,0.03
704,1955.5555555555554,-0.26,0.0
705,1958.3333333333333,-0.27,-0.015
706,1961.111111111111,-0.305,-0.05
707,1963.8888888888887,-0.335,-0.075
708,1966.6666666666665,-0.375,-0.115
709,1969.4444444444446,-0.415,-0.145
710,1972.2222222222224,-0.45,-0.18
711,1975.0,-0.48,-0.195
712,1977.7777777777778,-0.5,-0.23
713,1980.5555555555557,-0.505,-0.245
714,1983.3333333333335,-0.55,-0.28
715,1986.111111111111,-0.575,-0.315
716,1988.888888888889,-0.585,-0.34
717,1991.6666666666667,-0.615,-0.385
718,1994.4444444444446,-0.645,-0.425
719,1997.2222222222222,-0.68,-0.455
720,2000.0,-0.72,-0.475
721,2002.7777777777778,-0.75,-0.515
722,2005.5555555555554,-0.775,-0.55
723,2008.3333333333333,-0.775,-0.57
724,2011.111111111111,-0.8,-0.56
725,2013.888888888889,-0.81,-0.595
726,2016.6666666666665,-0.81,-0.6
727,2019.4444444444443,-0.815,-0.59
728,2022.2222222222222,-0.82,-0.625
729,2025.0,-0.84,-0.64
730,2027.7777777777776,-0.865,-0.66
731,2030.5555555555554,-0.875,-0.675
732,2033.3333333333333,-0.885,-0.71
733,2036.111111111111,-0.9,-0.705
734,2038.8888888888887,-0.89,-0.695
735,2041.6666666666665,-0.895,-0.71
736,2044.4444444444443,-0.9,-0.69
737,2047.222222222222,-0.885,-0.685
738,2050.0,-0.885,-0.685
739,2052.7777777777774,-0.885,-0.685
740,2055.555555555555,-0.89,-0.695
741,2058.333333333333,-0.88,-0.705
742,2061.111111111111,-0.885,-0.715
743,2063.888888888889,-0.895,-0.71
744,2066.666666666667,-0.91,-0.725
745,2069.444444444445,-0.905,-0.74
746,2072.2222222222226,-0.91,-0.72
747,2075.0,-0.895,-0.715
748,2077.777777777778,-0.89,-0.69
749,2080.5555555555557,-0.89,-0.7
750,2083.3333333333335,-0.88,-0.69
751,2086.1111111111113,-0.865,-0.67
752,2088.888888888889,-0.865,-0.695
753,2091.666666666667,-0.865,-0.69
754,2094.4444444444443,-0.855,-0.69
755,2097.222222222222,-0.885,-0.695
756,2100.0,-0.87,-0.685
757,2102.777777777778,-0.88,-0.695
758,2105.5555555555557,-0.9,-0.7
759,2108.3333333333335,-0.895,-0.695
760,2111.1111111111113,-0.885,-0.685
761,2113.888888888889,-0.87,-0.665
762,2116.6666666666665,-0.87,-0.655
763,2119.4444444444443,-0.855,-0.66
764,2122.222222222222,-0.85,-0.665
765,2125.0,-0.85,-0.66
766,2127.777777777778,-0.855,-0.665
767,2130.5555555555557,-0.865,-0.675
768,2133.3333333333335,-0.87,-0.68
769,2136.111111111111,-0.875,-0.67
770,2138.8888888888887,-0.895,-0.685
771,2141.6666666666665,-0.905,-0.685
772,2144.4444444444443,-0.895,-0.675
773,2147.222222222222,-0.895,-0.67
774,2150.0,-0.9,-0.645
775,2152.777777777778,-0.875,-0.645
776,2155.5555555555557,-0.885,-0.64
777,2158.333333333333,-0.885,-0.65
778,2161.111111111111,-0.885,-0.675
779,2163.8888888888887,-0.9,-0.675
780,2166.6666666666665,-0.91,-0.705
781,2169.4444444444443,-0.915,-0.715
782,2172.222222222222,-0.93,-0.72
783,2175.0,-0.94,-0.705
784,2177.7777777777774,-0.935,-0.685
785,2180.555555555555,-0.93,-0.685
786,2183.333333333333,-0.915,-0.675
787,2186.111111111111,-0.91,-0.675
788,2188.888888888889,-0.92,-0.685
789,2191.666666666667,-0.905,-0.69
790,2194.444444444445,-0.925,-0.7
791,2197.2222222222226,-0.945,-0.71
792,2200.0,-0.94,-0.72
793,2202.777777777778,-0.96,-0.735
794,2205.5555555555557,-0.975,-0.72
795,2208.3333333333335,-0.965,-0.72
796,2211.1111111111113,-0.96,-0.72
797,2213.888888888889,-0.955,-0.705
798,2216.666666666667,-0.955,-0.7
799,2219.4444444444443,-0.97,-0.7
800,2222.222222222222,-0.945,-0.71
801,2225.0,-0.945,-0.71
802,2227.777777777778,-0.945,-0.725
803,2230.5555555555557,-0.965,-0.73
804,2233.3333333333335,-0.97,-0.74
805,2236.1111111111113,-0.98,-0.755
806,2238.888888888889,-0.995,-0.75
807,2241.6666666666665,-1.01,-0.76
808,2244.4444444444443,-1.02,-0.74
809,2247.222222222222,-0.995,-0.725
810,2250.0,-0.99,-0.725
811,2252.777777777778,-0.97,-0.7
812,2255.5555555555557,-0.97,-0.725
813,2258.3333333333335,-0.97,-0.735
814,2261.111111111111,-0.965,-0.725
815,2263.8888888888887,-0.99,-0.74
816,2266.6666666666665,-0.995,-0.75
817,2269.4444444444443,-1.005,-0.76
818,2272.222222222222,-1.015,-0.76
819,2275.0,-1.0,-0.74
820,2277.777777777778,-0.995,-0.73
821,2280.5555555555557,-0.99,-0.73
822,2283.333333333333,-0.99,-0.73
823,2286.111111111111,-0.99,-0.71
824,2288.8888888888887,-1.0,-0.73
825,2291.6666666666665,-0.995,-0.71
826,2294.4444444444443,-1.0,-0.725
827,2297.222222222222,-1.0,-0.73
828,2300.0,-1.005,-0.73
829,2302.7777777777774,-1.02,-0.74
830,2305.555555555555,-1.035,-0.74
831,2308.333333333333,-1.03,-0.74
832,2311.111111111111,-1.025,-0.725
833,2313.888888888889,-1.02,-0.715
834,2316.666666666667,-1.01,-0.71
835,2319.444444444445,-0.995,-0.695
836,2322.2222222222226,-1.005,-0.705
837,2325.0,-1.0,-0.72
838,2327.777777777778,-1.01,-0.74
839,2330.5555555555557,-1.03,-0.735
840,2333.3333333333335,-1.025,-0.725
841,2336.1111111111113,-1.03,-0.75
842,2338.888888888889,-1.045,-0.75
843,2341.666666666667,-1.045,-0.73
844,2344.4444444444443,-1.025,-0.725
845,2347.222222222222,-1.035,-0.72
846,2350.0,-1.02,-0.705
847,2352.777777777778,-1.005,-0.7
848,2355.5555555555557,-1.005,-0.71
849,2358.3333333333335,-1.005,-0.715
850,2361.1111111111113,-1.01,-0.735
851,2363.888888888889,-1.02,-0.74
852,2366.6666666666665,-1.015,-0.745
853,2369.4444444444443,-1.035,-0.74
854,2372.222222222222,-1.04,-0.75
855,2375.0,-1.045,-0.73
856,2377.777777777778,-1.05,-0.72
857,2380.5555555555557,-1.03,-0.72
858,2383.3333333333335,-1.025,-0.7
859,2386.111111111111,-1.015,-0.69
860,2388.8888888888887,-1.02,-0.705
861,2391.6666666666665,-1.015,-0.715
862,2394.4444444444443,-1.01,-0.73
863,2397.222222222222,-1.04,-0.74
864,2400.0,-1.035,-0.75
865,2402.777777777778,-1.05,-0.765
866,2405.5555555555557,-1.05,-0.76
867,2408.333333333333,-1.05,-0.74
868,2411.111111111111,-1.045,-0.76
869,2413.8888888888887,-1.045,-0.74
870,2416.6666666666665,-1.02,-0.735
871,2419.4444444444443,-1.0,-0.72
872,2422.222222222222,-1.0,-0.705
873,2425.0,-1.015,-0.715
874,2427.7777777777774,-1.01,-0.72
875,2430.555555555555,-1.01,-0.73
876,2433.333333333333,-1.02,-0.755
877,2436.111111111111,-1.035,-0.75
878,2438.888888888889,-1.06,-0.75
879,2441.666666666667,-1.06,-0.735
880,2444.444444444445,-1.03,-0.715
881,2447.2222222222226,-1.04,-0.715
882,2450.0,-1.03,-0.705
883,2452.777777777778,-1.01,-0.71
884,2455.5555555555557,-1.015,-0.715
885,2458.3333333333335,-1.02,-0.715
886,2461.1111111111113,-1.0,-0.725
887,2463.888888888889,-1.01,-0.7
888,2466.666666666667,-1.015,-0.72
889,2469.4444444444443,-1.03,-0.72
890,2472.222222222222,-1.03,-0.71
891,2475.0,-1.035,-0.69
892,2477.777777777778,-1.035,-0.705
893,2480.5555555555557,-1.035,-0.685
894,2483.3333333333335,-1.03,-0.68
895,2486.1111111111113,-1.025,-0.68
896,2488.888888888889,-1.0,-0.67
897,2491.6666666666665,-1.005,-0.695
898,2494.4444444444443,-1.025,-0.7
899,2497.222222222222,-1.03,-0.695
900,2500.0,-1.025,-0.71
901,2502.777777777778,-1.045,-0.71
902,2505.5555555555557,-1.05,-0.73
903,2508.3333333333335,-1.04,-0.705
904,2511.111111111111,-1.04,-0.71
905,2513.8888888888887,-1.01,-0.69
906,2516.6666666666665,-1.01,-0.685
907,2519.4444444444443,-1.005,-0.675
908,2522.222222222222,-1.01,-0.675
909,2525.0,-1.01,-0.68
910,2527.777777777778,-1.02,-0.69
911,2530.5555555555557,-1.02,-0.695
912,2533.333333333333,-1.01,-0.71
913,2536.111111111111,-1.02,-0.695
914,2538.8888888888887,-1.025,-0.705
915,2541.6666666666665,-1.04,-0.685
916,2544.4444444444443,-1.02,-0.69
917,2547.222222222222,-1.015,-0.67
918,2550.0,-1.005,-0.67
919,2552.7777777777774,-0.99,-0.675
920,2555.555555555555,-0.995,-0.67
921,2558.333333333333,-0.98,-0.675
922,2561.111111111111,-0.98,-0.685
923,2563.888888888889,-0.985,-0.69
924,2566.666666666667,-1.0,-0.69
925,2569.444444444445,-1.0,-0.695
926,2572.2222222222226,-0.995,-0.69
927,2575.0,-0.985,-0.68
928,2577.777777777778,-0.965,-0.665
929,2580.5555555555557,-0.955,-0.675
930,2583.3333333333335,-0.93,-0.66
931,2586.1111111111113,-0.925,-0.655
932,2588.888888888889,-0.925,-0.675
933,2591.666666666667,-0.92,-0.675
934,2594.4444444444443,-0.93,-0.67
935,2597.222222222222,-0.92,-0.675
936,2600.0,-0.9,-0.67
937,2602.777777777778,-0.895,-0.66
938,2605.5555555555557,-0.885,-0.65
939,2608.3333333333335,-0.875,-0.625
940,2611.1111111111113,-0.875,-0.6
941,2613.888888888889,-0.845,-0.595
942,2616.6666666666665,-0.825,-0.57
943,2619.4444444444443,-0.82,-0.56
944,2622.222222222222,-0.805,-0.54
945,2625.0,-0.81,-0.54
946,2627.777777777778,-0.82,-0.52
947,2630.5555555555557,-0.84,-0.505
948,2633.3333333333335,-0.865,-0.505
949,2636.111111111111,-0.89,-0.52
950,2638.8888888888887,-0.9,-0.525
951,2641.6666666666665,-0.915,-0.53
952,2644.4444444444443,-0.905,-0.525
953,2647.222222222222,-0.895,-0.525
954,2650.0,-0.91,-0.51
955,2652.777777777778,-0.915,-0.51
956,2655.5555555555557,-0.94,-0.545
957,2658.333333333333,-0.96,-0.545
958,2661.111111111111,-0.975,-0.555
959,2663.8888888888887,-1.005,-0.59
960,2666.6666666666665,-1.005,-0.61
961,2669.4444444444443,-1.01,-0.625
962,2672.222222222222,-1.01,-0.63
963,2675.0,-1.03,-0.635
964,2677.7777777777774,-1.035,-0.63
965,2680.555555555555,-1.04,-0.63
966,2683.333333333333,-1.015,-0.63
967,2686.111111111111,-1.015,-0.625
968,2688.888888888889,-1.025,-0.63
969,2691.666666666667,-1.02,-0.63
970,2694.444444444445,-1.025,-0.65
971,2697.2222222222226,-1.045,-0.68
972,2700.0,-1.045,-0.675
973,2702.777777777778,-1.055,-0.685
974,2705.5555555555557,-1.06,-0.685
975,2708.3333333333335,-1.06,-0.69
976,2711.1111111111113,-1.06,-0.675
977,2713.888888888889,-1.045,-0.67
978,2716.666666666667,-1.04,-0.66
979,2719.4444444444443,-1.035,-0.65
980,2722.222222222222,-1.015,-0.645
981,2725.0,-1.01,-0.66
982,2727.777777777778,-1.005,-0.65
983,2730.5555555555557,-1.035,-0.665
984,2733.3333333333335,-1.02,-0.66
985,2736.1111111111113,-1.035,-0.66
986,2738.888888888889,-1.035,-0.68
987,2741.6666666666665,-1.02,-0.66
988,2744.4444444444443,-0.98,-0.655
989,2747.222222222222,-0.91,-0.635
990,2750.0,-0.83,-0.585
991,2752.777777777778,-0.715,-0.495
992,2755.5555555555557,-0.6,-0.345
993,2758.3333333333335,-0.46,-0.16
994,2761.111111111111,-0.335,0.07
995,2763.8888888888887,-0.215,0.305
996,2766.6666666666665,-0.165,0.56
997,2769.4444444444443,-0.2,0.765
998,2772.222222222222,-0.335,0.925
999,2775.0,-0.815,0.945
1000,2777.777777777778,-1.095,0.795
1001,2780.5555555555557,-1.375,0.54
1002,2783.333333333333,-1.605,0.17
1003,2786.111111111111,-1.795,-0.235
1004,2788.8888888888887,-1.905,-0.66
1005,2791.6666666666665,-1.925,-1.01
1006,2794.4444444444443,-1.86,-1.195
1007,2797.222222222222,-1.76,-1.235
1008,2800.0,-1.645,-1.125
1009,2802.7777777777774,-1.55,-1.0
1010,2805.555555555555,-1.465,-0.89
1011,2808.333333333333,-1.395,-0.8
1012,2811.111111111111,-1.31,-0.75
1013,2813.888888888889,-1.225,-0.715
1014,2816.666666666667,-1.155,-0.68
1015,2819.444444444445,-1.075,-0.67
1016,2822.2222222222226,-1.02,-0.625
1017,2825.0,-0.985,-0.615
1018,2827.777777777778,-0.995,-0.605
1019,2830.5555555555557,-0.99,-0.59
1020,2833.3333333333335,-1.0,-0.59
1021,2836.1111111111113,-1.005,-0.595
1022,2838.888888888889,-1.005,-0.585
1023,2841.666666666667,-0.99,-0.58
1024,2844.4444444444443,-0.99,-0.575
1025,2847.222222222222,-0.975,-0.565
1026,2850.0,-0.96,-0.565
1027,2852.777777777778,-0.94,-0.565
1028,2855.5555555555557,-0.92,-0.565
1029,2858.3333333333335,-0.925,-0.56
1030,2861.1111111111113,-0.935,-0.56
1031,2863.888888888889,-0.935,-0.56
1032,2866.6666666666665,-0.93,-0.56
1033,2869.4444444444443,-0.945,-0.545
1034,2872.222222222222,-0.92,-0.535
1035,2875.0,-0.93,-0.52
1036,2877.777777777778,-0.925,-0.505
1037,2880.5555555555557,-0.91,-0.5
1038,2883.3333333333335,-0.89,-0.495
1039,2886.111111111111,-0.88,-0.485
1040,2888.8888888888887,-0.87,-0.49
1041,2891.6666666666665,-0.87,-0.505
1042,2894.4444444444443,-0.895,-0.5
1043,2897.222222222222,-0.89,-0.51
1044,2900.0,-0.905,-0.505
1045,2902.777777777778,-0.905,-0.505
1046,2905.5555555555557,-0.895,-0.5
1047,2908.333333333333,-0.895,-0.485
1048,2911.111111111111,-0.875,-0.47
1049,2913.8888888888887,-0.875,-0.445
1050,2916.6666666666665,-0.85,-0.445
1051,2919.4444444444443,-0.855,-0.44
1052,2922.222222222222,-0.84,-0.435
1053,2925.0,-0.845,-0.44
1054,2927.7777777777774,-0.87,-0.44
1055,2930.555555555555,-0.865,-0.465
1056,2933.333333333333,-0.865,-0.435
1057,2936.111111111111,-0.855,-0.445
1058,2938.888888888889,-0.855,-0.43
1059,2941.666666666667,-0.835,-0.425
1060,2944.444444444445,-0.82,-0.4
1061,2947.2222222222226,-0.795,-0.385
1062,2950.0,-0.81,-0.37
1063,2952.777777777778,-0.79,-0.37
1064,2955.5555555555557,-0.785,-0.37
1065,2958.3333333333335,-0.78,-0.36
1066,2961.1111111111113,-0.785,-0.35
1067,2963.888888888889,-0.795,-0.355
1068,2966.666666666667,-0.79,-0.345
1069,2969.4444444444443,-0.77,-0.335
1070,2972.222222222222,-0.77,-0.33
1071,2975.0,-0.745,-0.31
1072,2977.777777777778,-0.735,-0.29
1073,2980.5555555555557,-0.725,-0.275
1074,2983.3333333333335,-0.695,-0.23
1075,2986.1111111111113,-0.66,-0.22
1076,2988.888888888889,-0.645,-0.225
1077,2991.6666666666665,-0.65,-0.21
1078,2994.4444444444443,-0.635,-0.19
1079,2997.222222222222,-0.62,-0.185
1080,3000.0,-0.615,-0.155
1081,3002.777777777778,-0.61,-0.155
1082,3005.5555555555557,-0.585,-0.115
1083,3008.3333333333335,-0.565,-0.085
1084,3011.111111111111,-0.535,-0.075
1085,3013.8888888888887,-0.51,-0.05
1086,3016.6666666666665,-0.49,-0.035
1087,3019.4444444444443,-0.47,-0.005
1088,3022.222222222222,-0.445,0.01
1089,3025.0,-0.43,0.02
1090,3027.777777777778,-0.43,0.035
1091,3030.5555555555557,-0.43,0.04
1092,3033.333333333333,-0.415,0.07
1093,3036.111111111111,-0.4,0.075
1094,3038.8888888888887,-0.39,0.105
1095,3041.6666666666665,-0.375,0.14
1096,3044.4444444444443,-0.355,0.16
1097,3047.222222222222,-0.33,0.165
1098,3050.0,-0.295,0.205
1099,3052.7777777777774,-0.285,0.21
1100,3055.555555555555,-0.285,0.225
1101,3058.333333333333,-0.265,0.21
1102,3061.111111111111,-0.28,0.2
1103,3063.888888888889,-0.28,0.195
1104,3066.666666666667,-0.285,0.21
1105,3069.444444444445,-0.315,0.21
1106,3072.2222222222226,-0.295,0.215
1107,3075.0,-0.31,0.205
1108,3077.777777777778,-0.295,0.215
1109,3080.5555555555557,-0.3,0.195
1110,3083.3333333333335,-0.305,0.2
1111,3086.1111111111113,-0.32,0.155
1112,3088.888888888889,-0.345,0.12
1113,3091.666666666667,-0.37,0.085
1114,3094.4444444444443,-0.4,0.05
1115,3097.222222222222,-0.43,-0.01
1116,3100.0,-0.48,-0.045
1117,3102.777777777778,-0.525,-0.09
1118,3105.5555555555557,-0.56,-0.13
1119,3108.3333333333335,-0.595,-0.16
1120,3111.1111111111113,-0.615,-0.185
1121,3113.888888888889,-0.64,-0.23
1122,3116.6666666666665,-0.655,-0.255
1123,3119.4444444444443,-0.675,-0.305
1124,3122.222222222222,-0.71,-0.35
1125,3125.0,-0.73,-0.38
1126,3127.777777777778,-0.76,-0.415
1127,3130.5555555555557,-0.775,-0.455
1128,3133.3333333333335,-0.8,-0.47
1129,3136.111111111111,-0.83,-0.5
1130,3138.8888888888887,-0.845,-0.52
1131,3141.6666666666665,-0.86,-0.525
1132,3144.4444444444443,-0.865,-0.53
1133,3147.222222222222,-0.87,-0.53
1134,3150.0,-0.86,-0.535
1135,3152.777777777778,-0.865,-0.555
1136,3155.5555555555557,-0.88,-0.555
1137,3158.333333333333,-0.89,-0.58
1138,3161.111111111111,-0.91,-0.6
1139,3163.8888888888887,-0.915,-0.62
1140,3166.6666666666665,-0.935,-0.61
1141,3169.4444444444443,-0.93,-0.63
1142,3172.222222222222,-0.93,-0.62
1143,3175.0,-0.93,-0.62
1144,3177.7777777777774,-0.915,-0.625
1145,3180.555555555555,-0.915,-0.615
1146,3183.333333333333,-0.905,-0.6
1147,3186.111111111111,-0.905,-0.615
1148,3188.888888888889,-0.91,-0.615
1149,3191.666666666667,-0.9,-0.625
1150,3194.444444444445,-0.935,-0.65
1151,3197.2222222222226,-0.935,-0.645
1152,3200.0,-0.96,-0.65
1153,3202.777777777778,-0.95,-0.66
1154,3205.5555555555557,-0.94,-0.65
1155,3208.3333333333335,-0.93,-0.635
1156,3211.1111111111113,-0.925,-0.64
1157,3213.888888888889,-0.91,-0.62
1158,3216.666666666667,-0.895,-0.605
1159,3219.4444444444443,-0.895,-0.605
1160,3222.222222222222,-0.875,-0.61
1161,3225.0,-0.885,-0.615
1162,3227.777777777778,-0.895,-0.615
1163,3230.5555555555557,-0.895,-0.635
1164,3233.3333333333335,-0.91,-0.65
1165,3236.1111111111113,-0.915,-0.625
1166,3238.888888888889,-0.91,-0.625
1167,3241.6666666666665,-0.895,-0.595
1168,3244.4444444444443,-0.905,-0.59
1169,3247.222222222222,-0.9,-0.58
1170,3250.0,-0.885,-0.57
1171,3252.777777777778,-0.88,-0.575
1172,3255.5555555555557,-0.875,-0.59
1173,3258.3333333333335,-0.885,-0.585
1174,3261.111111111111,-0.89,-0.61
1175,3263.8888888888887,-0.885,-0.615
1176,3266.6666666666665,-0.895,-0.61
1177,3269.4444444444443,-0.91,-0.595
1178,3272.222222222222,-0.9,-0.605
1179,3275.0,-0.905,-0.59
1180,3277.777777777778,-0.895,-0.575
1181,3280.5555555555557,-0.89,-0.58
1182,3283.333333333333,-0.89,-0.565
1183,3286.111111111111,-0.88,-0.58
1184,3288.8888888888887,-0.875,-0.58
1185,3291.6666666666665,-0.905,-0.6
1186,3294.4444444444443,-0.9,-0.595
1187,3297.222222222222,-0.91,-0.615
1188,3300.0,-0.93,-0.61
1189,3302.7777777777774,-0.925,-0.62
1190,3305.555555555555,-0.935,-0.615
1191,3308.333333333333,-0.93,-0.605
1192,3311.111111111111,-0.935,-0.61
1193,3313.888888888889,-0.92,-0.595
1194,3316.666666666667,-0.905,-0.585
1195,3319.444444444445,-0.9,-0.6
1196,3322.2222222222226,-0.905,-0.615
1197,3325.0,-0.905,-0.635
1198,3327.777777777778,-0.935,-0.65
1199,3330.5555555555557,-0.94,-0.675
1200,3333.3333333333335,-0.95,-0.675
1201,3336.1111111111113,-0.955,-0.67
1202,3338.888888888889,-0.955,-0.665
1203,3341.666666666667,-0.965,-0.66
1204,3344.4444444444443,-0.945,-0.65
1205,3347.222222222222,-0.935,-0.645
1206,3350.0,-0.93,-0.64
1207,3352.777777777778,-0.935,-0.635
1208,3355.5555555555557,-0.945,-0.655
1209,3358.3333333333335,-0.935,-0.66
1210,3361.1111111111113,-0.945,-0.655
1211,3363.888888888889,-0.94,-0.675
1212,3366.6666666666665,-0.965,-0.685
1213,3369.4444444444443,-0.97,-0.695
1214,3372.222222222222,-0.965,-0.68
1215,3375.0,-0.96,-0.675
1216,3377.777777777778,-0.955,-0.655
1217,3380.5555555555557,-0.955,-0.65
1218,3383.3333333333335,-0.955,-0.655
1219,3386.111111111111,-0.945,-0.665
1220,3388.8888888888887,-0.945,-0.665
1221,3391.6666666666665,-0.95,-0.68
1222,3394.4444444444443,-0.97,-0.695
1223,3397.222222222222,-0.96,-0.685
1224,3400.0,-0.97,-0.7
1225,3402.777777777778,-0.97,-0.7
1226,3405.5555555555557,-0.975,-0.695
1227,3408.333333333333,-0.965,-0.69
1228,3411.111111111111,-0.965,-0.675
1229,3413.8888888888887,-0.955,-0.665
1230,3416.6666666666665,-0.955,-0.645
1231,3419.4444444444443,-0.955,-0.665
1232,3422.222222222222,-0.955,-0.665
1233,3425.0,-0.965,-0.67
1234,3427.7777777777774,-0.965,-0.68
1235,3430.555555555555,-0.975,-0.68
1236,3433.333333333333,-0.98,-0.675
1237,3436.111111111111,-1.0,-0.685
1238,3438.888888888889,-0.985,-0.685
1239,3441.666666666667,-0.975,-0.68
1240,3444.444444444445,-0.975,-0.665
1241,3447.2222222222226,-0.955,-0.655
1242,3450.0,-0.95,-0.645
1243,3452.777777777778,-0.95,-0.65
1244,3455.5555555555557,-0.955,-0.665
1245,3458.3333333333335,-0.965,-0.665
1246,3461.1111111111113,-0.97,-0.665
1247,3463.888888888889,-0.96,-0.68
1248,3466.666666666667,-0.965,-0.685
1249,3469.4444444444443,-0.98,-0.68
1250,3472.222222222222,-0.975,-0.68
1251,3475.0,-0.975,-0.66
1252,3477.777777777778,-0.975,-0.655
1253,3480.5555555555557,-0.965,-0.645
1254,3483.3333333333335,-0.95,-0.64
1255,3486.1111111111113,-0.96,-0.67
1256,3488.888888888889,-0.97,-0.66
1257,3491.6666666666665,-0.98,-0.66
1258,3494.4444444444443,-0.945,-0.67
1259,3497.222222222222,-0.965,-0.68
1260,3500.0,-0.98,-0.675
1261,3502.777777777778,-0.99,-0.685
1262,3505.5555555555557,-0.985,-0.69
1263,3508.3333333333335,-0.975,-0.67
1264,3511.111111111111,-0.98,-0.66
1265,3513.8888888888887,-0.965,-0.65
1266,3516.6666666666665,-0.96,-0.65
1267,3519.4444444444443,-0.95,-0.655
1268,3522.222222222222,-0.955,-0.67
1269,3525.0,-0.955,-0.68
1270,3527.777777777778,-0.955,-0.665
1271,3530.5555555555557,-0.97,-0.675
1272,3533.333333333333,-0.97,-0.68
1273,3536.111111111111,-0.965,-0.68
1274,3538.8888888888887,-0.98,-0.68
1275,3541.6666666666665,-0.97,-0.67
1276,3544.4444444444443,-0.96,-0.665
1277,3547.222222222222,-0.955,-0.655
1278,3550.0,-0.95,-0.65
1279,3552.7777777777774,-0.94,-0.64
1280,3555.555555555555,-0.945,-0.655
1281,3558.333333333333,-0.945,-0.67
1282,3561.111111111111,-0.97,-0.685
1283,3563.888888888889,-0.965,-0.67
1284,3566.666666666667,-0.97,-0.675
1285,3569.444444444445,-0.975,-0.675
1286,3572.2222222222226,-0.975,-0.66
1287,3575.0,-0.975,-0.675
1288,3577.777777777778,-0.96,-0.65
1289,3580.5555555555557,-0.95,-0.645
1290,3583.3333333333335,-0.95,-0.635
1291,3586.1111111111113,-0.95,-0.63
1292,3588.888888888889,-0.93,-0.64
1293,3591.666666666667,-0.925,-0.655
1294,3594.4444444444443,-0.935,-0.655
1295,3597.222222222222,-0.94,-0.675
1296,3600.0,-0.95,-0.665
1297,3602.777777777778,-0.96,-0.67
1298,3605.5555555555557,-0.96,-0.66
1299,3608.3333333333335,-0.955,-0.65
1300,3611.1111111111113,-0.97,-0.635
1301,3613.888888888889,-0.96,-0.625
1302,3616.6666666666665,-0.95,-0.62
1303,3619.4444444444443,-0.955,-0.625
1304,3622.222222222222,-0.945,-0.625
1305,3625.0,-0.945,-0.635
1306,3627.777777777778,-0.94,-0.65
1307,3630.5555555555557,-0.945,-0.65
1308,3633.3333333333335,-0.965,-0.655
1309,3636.111111111111,-0.96,-0.645
1310,3638.8888888888887,-0.96,-0.645
1311,3641.6666666666665,-0.95,-0.625
1312,3644.4444444444443,-0.95,-0.63
1313,3647.222222222222,-0.95,-0.635
1314,3650.0,-0.93,-0.62
1315,3652.777777777778,-0.93,-0.625
1316,3655.5555555555557,-0.93,-0.61
1317,3658.333333333333,-0.93,-0.63
1318,3661.111111111111,-0.94,-0.64
1319,3663.8888888888887,-0.935,-0.645
1320,3666.6666666666665,-0.96,-0.67
1321,3669.4444444444443,-0.955,-0.675
1322,3672.222222222222,-0.95,-0.675
1323,3675.0,-0.945,-0.645
1324,3677.7777777777774,-0.945,-0.65
1325,3680.555555555555,-0.93,-0.63
1326,3683.333333333333,-0.925,-0.61
1327,3686.111111111111,-0.91,-0.615
1328,3688.888888888889,-0.915,-0.63
1329,3691.666666666667,-0.92,-0.615
1330,3694.444444444445,-0.92,-0.63
1331,3697.2222222222226,-0.91,-0.625
1332,3700.0,-0.895,-0.645
1333,3702.777777777778,-0.905,-0.635
1334,3705.5555555555557,-0.875,-0.62
1335,3708.3333333333335,-0.875,-0.615
1336,3711.1111111111113,-0.845,-0.605
1337,3713.888888888889,-0.83,-0.615
1338,3716.666666666667,-0.835,-0.59
1339,3719.4444444444443,-0.815,-0.595
1340,3722.222222222222,-0.81,-0.595
1341,3725.0,-0.8,-0.57
1342,3727.777777777778,-0.805,-0.56
1343,3730.5555555555557,-0.78,-0.565
1344,3733.3333333333335,-0.79,-0.53
1345,3736.1111111111113,-0.78,-0.54
1346,3738.888888888889,-0.775,-0.52
1347,3741.6666666666665,-0.77,-0.49
1348,3744.4444444444443,-0.77,-0.46
1349,3747.222222222222,-0.77,-0.445
1350,3750.0,-0.785,-0.425
1351,3752.777777777778,-0.81,-0.42
1352,3755.5555555555557,-0.8,-0.445
1353,3758.3333333333335,-0.81,-0.445
1354,3761.111111111111,-0.815,-0.455
1355,3763.8888888888887,-0.83,-0.455
1356,3766.6666666666665,-0.845,-0.48
1357,3769.4444444444443,-0.845,-0.475
1358,3772.222222222222,-0.875,-0.49
1359,3775.0,-0.9,-0.48
1360,3777.777777777778,-0.905,-0.48
1361,3780.5555555555557,-0.91,-0.5
1362,3783.333333333333,-0.925,-0.515
1363,3786.111111111111,-0.92,-0.535
1364,3788.8888888888887,-0.925,-0.55
1365,3791.6666666666665,-0.92,-0.585
1366,3794.4444444444443,-0.915,-0.58
1367,3797.222222222222,-0.94,-0.605
1368,3800.0,-0.955,-0.61
1369,3802.7777777777774,-0.975,-0.615
1370,3805.555555555555,-0.97,-0.595
1371,3808.333333333333,-0.97,-0.585
1372,3811.111111111111,-0.955,-0.59
1373,3813.888888888889,-0.955,-0.59
1374,3816.666666666667,-0.955,-0.57
1375,3819.444444444445,-0.96,-0.59
1376,3822.2222222222226,-0.96,-0.605
1377,3825.0,-0.935,-0.605
1378,3827.777777777778,-0.95,-0.61
1379,3830.5555555555557,-0.96,-0.64
1380,3833.3333333333335,-0.965,-0.625
1381,3836.1111111111113,-0.965,-0.62
1382,3838.888888888889,-0.97,-0.61
1383,3841.666666666667,-0.965,-0.62
1384,3844.4444444444443,-0.945,-0.6
1385,3847.222222222222,-0.945,-0.6
1386,3850.0,-0.935,-0.585
1387,3852.777777777778,-0.925,-0.6
1388,3855.5555555555557,-0.93,-0.6
1389,3858.3333333333335,-0.92,-0.605
1390,3861.1111111111113,-0.925,-0.6
1391,3863.888888888889,-0.935,-0.625
1392,3866.6666666666665,-0.905,-0.64
1393,3869.4444444444443,-0.86,-0.635
1394,3872.222222222222,-0.795,-0.615
1395,3875.0,-0.7,-0.545
1396,3877.777777777778,-0.575,-0.43
1397,3880.5555555555557,-0.435,-0.265
1398,3883.3333333333335,-0.265,-0.045
1399,3886.111111111111,-0.15,0.18
1400,3888.8888888888887,-0.035,0.44
1401,3891.6666666666665,-0.02,0.69
1402,3894.4444444444443,-0.06,0.92
1403,3897.222222222222,-0.205,1.095
1404,3900.0,-0.425,1.165
1405,3902.777777777778,-0.7,1.075
1406,3905.5555555555557,-0.98,0.845
1407,3908.333333333333,-1.245,0.53
1408,3911.111111111111,-1.475,0.14
1409,3913.8888888888887,-1.62,-0.24
1410,3916.6666666666665,-1.66,-0.575
1411,3919.4444444444443,-1.615,-0.81
1412,3922.222222222222,-1.5,-0.86
1413,3925.0,-1.375,-0.82
1414,3927.7777777777774,-1.265,-0.735
1415,3930.555555555555,-1.165,-0.665
1416,3933.333333333333,-1.105,-0.605
1417,3936.111111111111,-1.045,-0.58
1418,3938.888888888889,-0.985,-0.58
1419,3941.666666666667,-0.915,-0.58
1420,3944.444444444445,-0.905,-0.575
1421,3947.2222222222226,-0.87,-0.555
1422,3950.0,-0.835,-0.54
1423,3952.777777777778,-0.835,-0.54
1424,3955.5555555555557,-0.84,-0.545
1425,3958.3333333333335,-0.855,-0.57
1426,3961.1111111111113,-0.87,-0.58
1427,3963.888888888889,-0.855,-0.59
1428,3966.666666666667,-0.845,-0.575
1429,3969.4444444444443,-0.855,-0.585
1430,3972.222222222222,-0.835,-0.575
1431,3975.0,-0.825,-0.58
1432,3977.777777777778,-0.82,-0.56
1433,3980.5555555555557,-0.81,-0.54
1434,3983.3333333333335,-0.805,-0.53
1435,3986.1111111111113,-0.795,-0.53
1436,3988.888888888889,-0.795,-0.525
1437,3991.6666666666665,-0.785,-0.52
1438,3994.4444444444443,-0.785,-0.525
1439,3997.222222222222,-0.795,-0.525
1440,4000.0,-0.805,-0.515
1441,4002.7777777777783,-0.805,-0.535
1442,4005.5555555555557,-0.805,-0.525
1443,4008.333333333334,-0.82,-0.505
1444,4011.111111111111,-0.79,-0.49
1445,4013.888888888889,-0.785,-0.485
1446,4016.6666666666665,-0.76,-0.465
1447,4019.444444444445,-0.75,-0.465
1448,4022.222222222222,-0.74,-0.475
1449,4025.0000000000005,-0.745,-0.465
1450,4027.777777777778,-0.74,-0.485
1451,4030.555555555556,-0.765,-0.48
1452,4033.333333333333,-0.765,-0.475
1453,4036.1111111111113,-0.78,-0.49
1454,4038.8888888888887,-0.76,-0.47
1455,4041.666666666667,-0.76,-0.46
1456,4044.4444444444443,-0.745,-0.45
1457,4047.2222222222226,-0.735,-0.43
1458,4050.0,-0.725,-0.425
1459,4052.777777777778,-0.72,-0.415
1460,4055.555555555555,-0.705,-0.415
1461,4058.3333333333335,-0.705,-0.43
1462,4061.111111111111,-0.71,-0.43
1463,4063.888888888889,-0.71,-0.43
1464,4066.6666666666665,-0.705,-0.425
1465,4069.444444444445,-0.735,-0.425
1466,4072.222222222222,-0.705,-0.415
1467,4075.0,-0.695,-0.395
1468,4077.7777777777774,-0.685,-0.39
1469,4080.5555555555557,-0.665,-0.37
1470,4083.333333333333,-0.65,-0.35
1471,4086.1111111111113,-0.645,-0.35
1472,4088.8888888888887,-0.63,-0.345
1473,4091.666666666667,-0.635,-0.355
1474,4094.444444444444,-0.635,-0.355
1475,4097.222222222223,-0.645,-0.35
1476,4100.0,-0.64,-0.33
1477,4102.777777777778,-0.615,-0.335
1478,4105.555555555555,-0.6,-0.31
1479,4108.333333333333,-0.59,-0.295
1480,4111.11111111111,-0.58,-0.275
1481,4113.888888888889,-0.55,-0.25
1482,4116.666666666666,-0.535,-0.24
1483,4119.444444444444,-0.515,-0.225
1484,4122.222222222222,-0.51,-0.24
1485,4125.0,-0.495,-0.22
1486,4127.777777777778,-0.48,-0.21
1487,4130.555555555556,-0.475,-0.2
1488,4133.333333333334,-0.465,-0.195
1489,4136.111111111111,-0.455,-0.195
1490,4138.88888888889,-0.44,-0.17
1491,4141.666666666667,-0.435,-0.135
1492,4144.444444444445,-0.41,-0.115
1493,4147.222222222222,-0.375,-0.08
1494,4150.0,-0.355,-0.07
1495,4152.777777777777,-0.33,-0.05
1496,4155.555555555556,-0.305,-0.035
1497,4158.333333333333,-0.3,-0.025
1498,4161.111111111111,-0.3,-0.005
1499,4163.888888888889,-0.285,-0.005
1500,4166.666666666667,-0.295,0.01
1501,4169.444444444444,-0.26,0.035
1502,4172.222222222223,-0.25,0.045
1503,4175.0,-0.25,0.06
1504,4177.777777777778,-0.215,0.1
1505,4180.555555555556,-0.195,0.115
1506,4183.333333333334,-0.2,0.125
1507,4186.111111111111,-0.175,0.135
1508,4188.888888888889,-0.175,0.145
1509,4191.666666666666,-0.15,0.125
1510,4194.444444444444,-0.16,0.125
1511,4197.222222222222,-0.165,0.12
1512,4200.0,-0.17,0.135
1513,4202.777777777777,-0.185,0.13
1514,4205.555555555556,-0.185,0.145
1515,4208.333333333333,-0.195,0.13
1516,4211.111111111111,-0.19,0.125
1517,4213.888888888889,-0.21,0.125
1518,4216.666666666667,-0.215,0.11
1519,4219.444444444444,-0.23,0.075
1520,4222.222222222223,-0.255,0.065
1521,4225.0,-0.3,0.015
1522,4227.777777777778,-0.33,-0.02
1523,4230.555555555555,-0.375,-0.07
1524,4233.333333333333,-0.4,-0.085
1525,4236.11111111111,-0.43,-0.125
1526,4238.888888888889,-0.445,-0.15
1527,4241.666666666666,-0.475,-0.175
1528,4244.444444444444,-0.505,-0.2
1529,4247.222222222222,-0.52,-0.235
1530,4250.0,-0.55,-0.245
1531,4252.777777777778,-0.555,-0.285
1532,4255.555555555556,-0.58,-0.335
1533,4258.333333333334,-0.605,-0.35
1534,4261.111111111111,-0.65,-0.39
1535,4263.88888888889,-0.685,-0.42
1536,4266.666666666667,-0.705,-0.43
1537,4269.444444444445,-0.725,-0.46
1538,4272.222222222222,-0.74,-0.475
1539,4275.0,-0.74,-0.48
1540,4277.777777777777,-0.75,-0.49
1541,4280.555555555556,-0.76,-0.495
1542,4283.333333333333,-0.765,-0.5
1543,4286.111111111111,-0.76,-0.515
1544,4288.888888888889,-0.775,-0.515
1545,4291.666666666667,-0.785,-0.56
1546,4294.444444444444,-0.79,-0.565
1547,4297.222222222223,-0.8,-0.58
1548,4300.0,-0.81,-0.59
1549,4302.777777777778,-0.825,-0.595
1550,4305.555555555556,-0.83,-0.6
1551,4308.333333333334,-0.825,-0.59
1552,4311.111111111111,-0.825,-0.58
1553,4313.888888888889,-0.815,-0.59
1554,4316.666666666666,-0.805,-0.58
1555,4319.444444444444,-0.815,-0.6
1556,4322.222222222222,-0.805,-0.595
1557,4325.0,-0.82,-0.61
1558,4327.777777777777,-0.82,-0.6
1559,4330.555555555556,-0.83,-0.63
1560,4333.333333333333,-0.845,-0.63
1561,4336.111111111111,-0.845,-0.635
1562,4338.888888888889,-0.845,-0.635
1563,4341.666666666667,-0.85,-0.615
1564,4344.444444444444,-0.84,-0.61
1565,4347.222222222223,-0.815,-0.615
1566,4350.0,-0.8,-0.62
1567,4352.777777777778,-0.8,-0.605
1568,4355.555555555555,-0.795,-0.6
1569,4358.333333333333,-0.79,-0.62
1570,4361.11111111111,-0.795,-0.625
1571,4363.888888888889,-0.8,-0.625
1572,4366.666666666666,-0.815,-0.64
1573,4369.444444444444,-0.82,-0.62
1574,4372.222222222222,-0.855,-0.63
1575,4375.0,-0.84,-0.63
1576,4377.777777777778,-0.83,-0.59
1577,4380.555555555556,-0.8,-0.59
1578,4383.333333333334,-0.785,-0.6
1579,4386.111111111111,-0.78,-0.59
1580,4388.88888888889,-0.785,-0.605
1581,4391.666666666667,-0.785,-0.62
1582,4394.444444444445,-0.79,-0.62
1583,4397.222222222222,-0.805,-0.61
1584,4400.0,-0.815,-0.63
1585,4402.777777777777,-0.83,-0.635
1586,4405.555555555556,-0.84,-0.62
1587,4408.333333333333,-0.825,-0.615
1588,4411.111111111111,-0.815,-0.61
1589,4413.888888888889,-0.815,-0.6
1590,4416.666666666667,-0.81,-0.585
1591,4419.444444444444,-0.815,-0.6
1592,4422.222222222223,-0.82,-0.61
1593,4425.0,-0.835,-0.605
1594,4427.777777777778,-0.82,-0.645
1595,4430.555555555556,-0.84,-0.645
1596,4433.333333333334,-0.855,-0.65
1597,4436.111111111111,-0.855,-0.66
1598,4438.888888888889,-0.865,-0.635
1599,4441.666666666666,-0.85,-0.64
1600,4444.444444444444,-0.855,-0.63
1601,4447.222222222222,-0.845,-0.625
1602,4450.0,-0.84,-0.615
1603,4452.777777777777,-0.85,-0.605
1604,4455.555555555556,-0.85,-0.625
1605,4458.333333333333,-0.855,-0.64
1606,4461.111111111111,-0.875,-0.64
1607,4463.888888888889,-0.89,-0.645
1608,4466.666666666667,-0.885,-0.625
1609,4469.444444444444,-0.895,-0.65
1610,4472.222222222223,-0.895,-0.645
1611,4475.0,-0.895,-0.625
1612,4477.777777777778,-0.885,-0.63
1613,4480.555555555555,-0.905,-0.635
1614,4483.333333333333,-0.88,-0.615
1615,4486.11111111111,-0.885,-0.615
1616,4488.888888888889,-0.87,-0.625
1617,4491.666666666666,-0.885,-0.64
1618,4494.444444444444,-0.88,-0.65
1619,4497.222222222222,-0.89,-0.665
1620,4500.0,-0.905,-0.67
1621,4502.777777777778,-0.905,-0.68
1622,4505.555555555556,-0.91,-0.67
1623,4508.333333333334,-0.9,-0.67
1624,4511.111111111111,-0.915,-0.66
1625,4513.88888888889,-0.905,-0.655
1626,4516.666666666667,-0.905,-0.645
1627,4519.444444444445,-0.885,-0.665
1628,4522.222222222222,-0.895,-0.665
1629,4525.0,-0.9,-0.67
1630,4527.777777777777,-0.9,-0.69
1631,4530.555555555556,-0.905,-0.69
1632,4533.333333333333,-0.91,-0.7
1633,4536.111111111111,-0.91,-0.71
1634,4538.888888888889,-0.91,-0.695
1635,4541.666666666667,-0.905,-0.68
1636,4544.444444444444,-0.93,-0.685
1637,4547.222222222223,-0.905,-0.675
1638,4550.0,-0.9,-0.68
1639,4552.777777777778,-0.9,-0.68
1640,4555.555555555556,-0.905,-0.67
1641,4558.333333333334,-0.905,-0.69
1642,4561.111111111111,-0.935,-0.695
1643,4563.888888888889,-0.925,-0.705
1644,4566.666666666666,-0.92,-0.725
1645,4569.444444444444,-0.935,-0.73
1646,4572.222222222222,-0.94,-0.7
1647,4575.0,-0.925,-0.71
1648,4577.777777777777,-0.935,-0.685
1649,4580.555555555556,-0.91,-0.7
1650,4583.333333333333,-0.91,-0.68
1651,4586.111111111111,-0.915,-0.67
1652,4588.888888888889,-0.92,-0.68
1653,4591.666666666667,-0.92,-0.685
1654,4594.444444444444,-0.92,-0.685
1655,4597.222222222223,-0.93,-0.7
1656,4600.0,-0.92,-0.705
1657,4602.777777777778,-0.94,-0.705
1658,4605.555555555555,-0.945,-0.7
1659,4608.333333333333,-0.94,-0.68
1660,4611.11111111111,-0.935,-0.69
1661,4613.888888888889,-0.945,-0.685
1662,4616.666666666666,-0.935,-0.67
1663,4619.444444444444,-0.925,-0.665
1664,4622.222222222222,-0.935,-0.675
1665,4625.0,-0.92,-0.69
1666,4627.777777777778,-0.935,-0.68
1667,4630.555555555556,-0.935,-0.69
1668,4633.333333333334,-0.935,-0.69
1669,4636.111111111111,-0.945,-0.715
1670,4638.88888888889,-0.94,-0.71
1671,4641.666666666667,-0.95,-0.68
1672,4644.444444444445,-0.925,-0.68
1673,4647.222222222222,-0.935,-0.675
1674,4650.0,-0.925,-0.655
1675,4652.777777777777,-0.925,-0.685
1676,4655.555555555556,-0.925,-0.685
1677,4658.333333333333,-0.925,-0.69
1678,4661.111111111111,-0.945,-0.715
1679,4663.888888888889,-0.945,-0.72
1680,4666.666666666667,-0.945,-0.705
1681,4669.444444444444,-0.96,-0.715
1682,4672.222222222223,-0.955,-0.705
1683,4675.0,-0.945,-0.705
1684,4677.777777777778,-0.94,-0.685
1685,4680.555555555556,-0.92,-0.685
1686,4683.333333333334,-0.915,-0.685
1687,4686.111111111111,-0.91,-0.69
1688,4688.888888888889,-0.91,-0.7
1689,4691.666666666666,-0.91,-0.7
1690,4694.444444444444,-0.93,-0.715
1691,4697.222222222222,-0.925,-0.715
1692,4700.0,-0.93,-0.71
1693,4702.777777777777,-0.95,-0.7
1694,4705.555555555556,-0.955,-0.7
1695,4708.333333333333,-0.935,-0.695
1696,4711.111111111111,-0.92,-0.705
1697,4713.888888888889,-0.94,-0.67
1698,4716.666666666667,-0.925,-0.7
1699,4719.444444444444,-0.915,-0.695
1700,4722.222222222223,-0.91,-0.7
1701,4725.0,-0.91,-0.7
1702,4727.777777777778,-0.925,-0.715
1703,4730.555555555555,-0.93,-0.725
1704,4733.333333333333,-0.95,-0.725
1705,4736.11111111111,-0.95,-0.73
1706,4738.888888888889,-0.96,-0.72
1707,4741.666666666666,-0.95,-0.71
1708,4744.444444444444,-0.935,-0.68
1709,4747.222222222222,-0.94,-0.685
1710,4750.0,-0.93,-0.68
1711,4752.777777777778,-0.93,-0.685
1712,4755.555555555556,-0.92,-0.695
1713,4758.333333333334,-0.93,-0.695
1714,4761.111111111111,-0.925,-0.695
1715,4763.88888888889,-0.925,-0.715
1716,4766.666666666667,-0.93,-0.7
1717,4769.444444444445,-0.94,-0.695
1718,4772.222222222222,-0.94,-0.705
1719,4775.0,-0.92,-0.685
1720,4777.777777777777,-0.915,-0.69
1721,4780.555555555556,-0.925,-0.675
1722,4783.333333333333,-0.91,-0.665
1723,4786.111111111111,-0.915,-0.675
1724,4788.888888888889,-0.91,-0.675
1725,4791.666666666667,-0.9,-0.67
1726,4794.444444444444,-0.91,-0.68
1727,4797.222222222223,-0.93,-0.7
1728,4800.0,-0.925,-0.69
1729,4802.777777777778,-0.945,-0.695
1730,4805.555555555556,-0.95,-0.7
1731,4808.333333333334,-0.945,-0.675
1732,4811.111111111111,-0.935,-0.66
1733,4813.888888888889,-0.915,-0.665
1734,4816.666666666666,-0.905,-0.655
1735,4819.444444444444,-0.9,-0.66
1736,4822.222222222222,-0.895,-0.655
1737,4825.0,-0.89,-0.675
1738,4827.777777777777,-0.895,-0.67
1739,4830.555555555556,-0.9,-0.695
1740,4833.333333333333,-0.925,-0.685
1741,4836.111111111111,-0.935,-0.68
1742,4838.888888888889,-0.925,-0.68
1743,4841.666666666667,-0.92,-0.68
1744,4844.444444444444,-0.92,-0.665
1745,4847.222222222223,-0.92,-0.67
1746,4850.0,-0.915,-0.665
1747,4852.777777777778,-0.895,-0.68
1748,4855.555555555555,-0.895,-0.67
1749,4858.333333333333,-0.895,-0.67
1750,4861.11111111111,-0.9,-0.685
1751,4863.888888888889,-0.9,-0.675
1752,4866.666666666666,-0.905,-0.695
1753,4869.444444444444,-0.9,-0.695
1754,4872.222222222222,-0.885,-0.685
1755,4875.0,-0.885,-0.695
1756,4877.777777777778,-0.865,-0.66
1757,4880.555555555556,-0.85,-0.65
1758,4883.333333333334,-0.83,-0.655
1759,4886.111111111111,-0.83,-0.66
1760,4888.88888888889,-0.81,-0.66
1761,4891.666666666667,-0.83,-0.665
1762,4894.444444444445,-0.82,-0.67
1763,4897.222222222222,-0.82,-0.665
1764,4900.0,-0.82,-0.64
1765,4902.777777777777,-0.81,-0.655
1766,4905.555555555556,-0.795,-0.65
1767,4908.333333333333,-0.785,-0.62
1768,4911.111111111111,-0.755,-0.595
1769,4913.888888888889,-0.73,-0.57
1770,4916.666666666667,-0.73,-0.565
1771,4919.444444444444,-0.71,-0.56
1772,4922.222222222223,-0.7,-0.545
1773,4925.0,-0.71,-0.52
1774,4927.777777777778,-0.745,-0.52
1775,4930.555555555556,-0.75,-0.515
1776,4933.333333333334,-0.785,-0.515
1777,4936.111111111111,-0.82,-0.53
1778,4938.888888888889,-0.815,-0.52
1779,4941.666666666666,-0.82,-0.505
1780,4944.444444444444,-0.81,-0.505
1781,4947.222222222222,-0.81,-0.515
1782,4950.0,-0.82,-0.505
1783,4952.777777777777,-0.82,-0.505
1784,4955.555555555556,-0.835,-0.53
1785,4958.333333333333,-0.855,-0.545
1786,4961.111111111111,-0.895,-0.57
1787,4963.888888888889,-0.91,-0.595
1788,4966.666666666667,-0.915,-0.62
1789,4969.444444444444,-0.925,-0.64
1790,4972.222222222223,-0.925,-0.65
1791,4975.0,-0.925,-0.64
1792,4977.777777777778,-0.915,-0.635
1793,4980.555555555555,-0.93,-0.645
1794,4983.333333333333,-0.92,-0.635
1795,4986.11111111111,-0.92,-0.64
1796,4988.888888888889,-0.935,-0.645
1797,4991.666666666666,-0.95,-0.655
1798,4994.444444444444,-0.965,-0.675
1799,4997.222222222222,-0.965,-0.675
1800,5000.0,-0.995,-0.68
1801,5002.777777777778,-0.98,-0.69
1802,5005.555555555556,-0.985,-0.685
1803,5008.333333333334,-0.975,-0.675
1804,5011.111111111111,-0.955,-0.66
1805,5013.88888888889,-0.97,-0.665
1806,5016.666666666667,-0.94,-0.65
1807,5019.444444444445,-0.925,-0.655
1808,5022.222222222222,-0.94,-0.67
1809,5025.0,-0.96,-0.67
1810,5027.777777777777,-0.95,-0.695
1811,5030.555555555556,-0.95,-0.685
1812,5033.333333333333,-0.975,-0.695
1813,5036.111111111111,-0.965,-0.685
1814,5038.888888888889,-0.96,-0.67
1815,5041.666666666667,-0.96,-0.665
1816,5044.444444444444,-0.925,-0.675
1817,5047.222222222223,-0.9,-0.675
1818,5050.0,-0.86,-0.67
1819,5052.777777777778,-0.79,-0.65
1820,5055.555555555556,-0.705,-0.59
1821,5058.333333333334,-0.605,-0.5
1822,5061.111111111111,-0.495,-0.35
1823,5063.888888888889,-0.355,-0.165
1824,5066.666666666666,-0.23,0.05
1825,5069.444444444444,-0.145,0.3
1826,5072.222222222222,-0.11,0.565
1827,5075.0,-0.18,0.775
1828,5077.777777777777,-0.31,0.925
1829,5080.555555555556,-0.53,0.97
1830,5083.333333333333,-0.77,0.875
1831,5086.111111111111,-1.01,0.65
1832,5088.888888888889,-1.28,0.315
1833,5091.666666666667,-1.495,-0.065
1834,5094.444444444444,-1.67,-0.455
1835,5097.222222222223,-1.71,-0.785
1836,5100.0,-1.695,-0.995
1837,5102.777777777778,-1.6,-1.05
1838,5105.555555555555,-1.49,-0.99
1839,5108.333333333333,-1.38,-0.885
1840,5111.11111111111,-1.255,-0.765
1841,5113.888888888889,-1.155,-0.725
1842,5116.666666666666,-1.095,-0.675
1843,5119.444444444444,-1.015,-0.66
1844,5122.222222222222,-0.96,-0.645
1845,5125.0,-0.9,-0.645
1846,5127.777777777778,-0.89,-0.64
1847,5130.555555555556,-0.875,-0.645
1848,5133.333333333334,-0.875,-0.645
1849,5136.111111111111,-0.885,-0.64
1850,5138.88888888889,-0.9,-0.655
1851,5141.666666666667,-0.915,-0.64
1852,5144.444444444445,-0.905,-0.635
1853,5147.222222222222,-0.88,-0.63
1854,5150.0,-0.85,-0.625
1855,5152.777777777777,-0.84,-0.625
1856,5155.555555555556,-0.835,-0.625
1857,5158.333333333333,-0.845,-0.625
1858,5161.111111111111,-0.835,-0.625
1859,5163.888888888889,-0.825,-0.635
1860,5166.666666666667,-0.845,-0.625
1861,5169.444444444444,-0.835,-0.62
1862,5172.222222222223,-0.85,-0.615
1863,5175.0,-0.84,-0.595
1864,5177.777777777778,-0.84,-0.575
1865,5180.555555555556,-0.825,-0.575
1866,5183.333333333334,-0.83,-0.56
1867,5186.111111111111,-0.815,-0.58
1868,5188.888888888889,-0.805,-0.57
1869,5191.666666666666,-0.82,-0.575
1870,5194.444444444444,-0.815,-0.6
1871,5197.222222222222,-0.82,-0.6
1872,5200.0,-0.825,-0.59
1873,5202.777777777777,-0.83,-0.595
1874,5205.555555555556,-0.82,-0.585
1875,5208.333333333333,-0.805,-0.565
1876,5211.111111111111,-0.79,-0.535
1877,5213.888888888889,-0.785,-0.545
1878,5216.666666666667,-0.77,-0.52
1879,5219.444444444444,-0.775,-0.51
1880,5222.222222222223,-0.765,-0.515
1881,5225.0,-0.765,-0.515
1882,5227.777777777778,-0.77,-0.535
1883,5230.555555555555,-0.765,-0.53
1884,5233.333333333333,-0.795,-0.54
1885,5236.11111111111,-0.79,-0.53
1886,5238.888888888889,-0.795,-0.545
1887,5241.666666666666,-0.795,-0.5
1888,5244.444444444444,-0.765,-0.49
1889,5247.222222222222,-0.75,-0.495
1890,5250.0,-0.755,-0.465
1891,5252.777777777778,-0.73,-0.49
1892,5255.555555555556,-0.735,-0.475
1893,5258.333333333334,-0.725,-0.475
1894,5261.111111111111,-0.72,-0.465
1895,5263.88888888889,-0.725,-0.49
1896,5266.666666666667,-0.73,-0.475
1897,5269.444444444445,-0.73,-0.48
1898,5272.222222222222,-0.725,-0.46
1899,5275.0,-0.735,-0.445
1900,5277.777777777777,-0.705,-0.42
1901,5280.555555555556,-0.685,-0.395
1902,5283.333333333333,-0.675,-0.37
1903,5286.111111111111,-0.65,-0.37
1904,5288.888888888889,-0.635,-0.37
1905,5291.666666666667,-0.635,-0.35
1906,5294.444444444444,-0.625,-0.36
1907,5297.222222222223,-0.625,-0.345
1908,5300.0,-0.61,-0.325
1909,5302.777777777778,-0.615,-0.32
1910,5305.555555555556,-0.6,-0.305
1911,5308.333333333334,-0.575,-0.28
1912,5311.111111111111,-0.56,-0.25
1913,5313.888888888889,-0.545,-0.235
1914,5316.666666666666,-0.525,-0.2
1915,5319.444444444444,-0.485,-0.195
1916,5322.222222222222,-0.475,-0.17
1917,5325.0,-0.46,-0.15
1918,5327.777777777777,-0.425,-0.15
1919,5330.555555555556,-0.425,-0.14
1920,5333.333333333333,-0.405,-0.14
1921,5336.111111111111,-0.43,-0.105
1922,5338.888888888889,-0.395,-0.09
1923,5341.666666666667,-0.375,-0.07
1924,5344.444444444444,-0.365,-0.035
1925,5347.222222222223,-0.345,-0.015
1926,5350.0,-0.295,0.005
1927,5352.777777777778,-0.265,0.045
1928,5355.555555555555,-0.255,0.055
1929,5358.333333333333,-0.245,0.05
1930,5361.11111111111,-0.25,0.05
1931,5363.888888888889,-0.26,0.075
1932,5366.666666666666,-0.26,0.075
1933,5369.444444444444,-0.27,0.08
1934,5372.222222222222,-0.26,0.09
1935,5375.0,-0.26,0.11
1936,5377.777777777778,-0.255,0.1
1937,5380.555555555556,-0.26,0.11
1938,5383.333333333334,-0.27,0.11
1939,5386.111111111111,-0.26,0.09
1940,5388.88888888889,-0.265,0.075
1941,5391.666666666667,-0.29,0.055
1942,5394.444444444445,-0.32,0.0
1943,5397.222222222222,-0.345,-0.03
1944,5400.0,-0.39,-0.065
1945,5402.777777777777,-0.405,-0.095
1946,5405.555555555556,-0.455,-0.12
1947,5408.333333333333,-0.49,-0.165
1948,5411.111111111111,-0.51,-0.185
1949,5413.888888888889,-0.53,-0.22
1950,5416.666666666667,-0.57,-0.26
1951,5419.444444444444,-0.6,-0.31
1952,5422.222222222223,-0.62,-0.33
1953,5425.0,-0.65,-0.385
1954,5427.777777777778,-0.69,-0.43
1955,5430.555555555556,-0.715,-0.465
1956,5433.333333333334,-0.755,-0.49
1957,5436.111111111111,-0.765,-0.52
1958,5438.888888888889,-0.79,-0.545
1959,5441.666666666666,-0.81,-0.565
1960,5444.444444444444,-0.815,-0.555
1961,5447.222222222222,-0.82,-0.56
1962,5450.0,-0.81,-0.565
1963,5452.777777777777,-0.82,-0.55
1964,5455.555555555556,-0.84,-0.575
1965,5458.333333333333,-0.855,-0.595
1966,5461.111111111111,-0.86,-0.59
1967,5463.888888888889,-0.88,-0.61
1968,5466.666666666667,-0.885,-0.62
1969,5469.444444444444,-0.89,-0.63
1970,5472.222222222223,-0.895,-0.63
1971,5475.0,-0.895,-0.63
1972,5477.777777777778,-0.895,-0.63
1973,5480.555555555555,-0.89,-0.63
1974,5483.333333333333,-0.88,-0.625
1975,5486.11111111111,-0.885,-0.63
1976,5488.888888888889,-0.885,-0.65
1977,5491.666666666666,-0.87,-0.66
1978,5494.444444444444,-0.88,-0.66
1979,5497.222222222222,-0.895,-0.67
1980,5500.0,-0.9,-0.67
1981,5502.777777777778,-0.89,-0.685
1982,5505.555555555556,-0.905,-0.665
1983,5508.333333333334,-0.915,-0.67
1984,5511.111111111111,-0.915,-0.645
1985,5513.88888888889,-0.885,-0.63
1986,5516.666666666667,-0.895,-0.625
1987,5519.444444444445,-0.875,-0.63
1988,5522.222222222222,-0.9,-0.645
1989,5525.0,-0.915,-0.635
1990,5527.777777777777,-0.91,-0.66
1991,5530.555555555556,-0.91,-0.685
1992,5533.333333333333,-0.905,-0.65
1993,5536.111111111111,-0.91,-0.665
1994,5538.888888888889,-0.91,-0.64
1995,5541.666666666667,-0.925,-0.645
1996,5544.444444444444,-0.91,-0.63
1997,5547.222222222223,-0.895,-0.63
1998,5550.0,-0.895,-0.61
1999,5552.777777777778,-0.89,-0.62
2000,5555.555555555556,-0.88,-0.62
2001,5558.333333333334,-0.895,-0.615
2002,5561.111111111111,-0.89,-0.615
2003,5563.888888888889,-0.9,-0.615
2004,5566.666666666666,-0.905,-0.635
2005,5569.444444444444,-0.915,-0.635
2006,5572.222222222222,-0.925,-0.635
2007,5575.0,-0.925,-0.625
2008,5577.777777777777,-0.91,-0.62
2009,5580.555555555556,-0.895,-0.59
2010,5583.333333333333,-0.895,-0.59
2011,5586.111111111111,-0.87,-0.585
2012,5588.888888888889,-0.885,-0.59
2013,5591.666666666667,-0.885,-0.585
2014,5594.444444444444,-0.905,-0.595
2015,5597.222222222223,-0.92,-0.62
2016,5600.0,-0.93,-0.64
2017,5602.777777777778,-0.92,-0.635
2018,5605.555555555555,-0.935,-0.615
2019,5608.333333333333,-0.945,-0.635
2020,5611.11111111111,-0.935,-0.61
2021,5613.888888888889,-0.955,-0.615
2022,5616.666666666666,-0.93,-0.615
2023,5619.444444444444,-0.92,-0.59
2024,5622.222222222222,-0.93,-0.61
2025,5625.0,-0.945,-0.615
2026,5627.777777777778,-0.95,-0.64
2027,5630.555555555556,-0.96,-0.65
2028,5633.333333333334,-0.98,-0.655
2029,5636.111111111111,-0.975,-0.665
2030,5638.88888888889,-0.975,-0.645
2031,5641.666666666667,-0.99,-0.65
2032,5644.444444444445,-0.97,-0.65
2033,5647.222222222222,-0.965,-0.635
2034,5650.0,-0.96,-0.63
2035,5652.777777777777,-0.945,-0.64
2036,5655.555555555556,-0.955,-0.635
2037,5658.333333333333,-0.95,-0.635
2038,5661.111111111111,-0.985,-0.665
2039,5663.888888888889,-1.0,-0.68
2040,5666.666666666667,-1.015,-0.685
2041,5669.444444444444,-1.0,-0.68
2042,5672.222222222223,-1.0,-0.675
2043,5675.0,-0.99,-0.67
2044,5677.777777777778,-0.995,-0.66
2045,5680.555555555556,-0.98,-0.64
2046,5683.333333333334,-0.975,-0.635
2047,5686.111111111111,-0.97,-0.645
2048,5688.888888888889,-0.96,-0.645
2049,5691.666666666666,-0.965,-0.665
2050,5694.444444444444,-0.985,-0.665
2051,5697.222222222222,-1.0,-0.69
2052,5700.0,-1.005,-0.69
2053,5702.777777777777,-1.01,-0.69
2054,5705.555555555556,-1.015,-0.68
2055,5708.333333333333,-1.015,-0.68
2056,5711.111111111111,-1.01,-0.67
2057,5713.888888888889,-1.0,-0.65
2058,5716.666666666667,-0.99,-0.655
2059,5719.444444444444,-0.99,-0.645
2060,5722.222222222223,-0.98,-0.66
2061,5725.0,-0.975,-0.67
2062,5727.777777777778,-0.985,-0.665
2063,5730.555555555555,-0.98,-0.68
2064,5733.333333333333,-0.995,-0.7
2065,5736.11111111111,-1.005,-0.7
2066,5738.888888888889,-1.025,-0.695
2067,5741.666666666666,-1.025,-0.705
2068,5744.444444444444,-1.005,-0.685
2069,5747.222222222222,-1.01,-0.68
2070,5750.0,-0.99,-0.66
2071,5752.777777777778,-0.99,-0.655
2072,5755.555555555556,-0.98,-0.665
2073,5758.333333333334,-1.0,-0.665
2074,5761.111111111111,-1.005,-0.68
2075,5763.88888888889,-1.015,-0.695
2076,5766.666666666667,-1.03,-0.71
2077,5769.444444444445,-1.025,-0.7
2078,5772.222222222222,-1.02,-0.69
2079,5775.0,-1.025,-0.7
2080,5777.777777777777,-1.01,-0.68
2081,5780.555555555556,-1.01,-0.68
2082,5783.333333333333,-0.995,-0.665
2083,5786.111111111111,-1.0,-0.66
2084,5788.888888888889,-1.02,-0.665
2085,5791.666666666667,-1.02,-0.69
2086,5794.444444444444,-1.035,-0.69
2087,5797.222222222223,-1.025,-0.695
2088,5800.0,-1.03,-0.705
2089,5802.777777777778,-1.055,-0.72
2090,5805.555555555556,-1.055,-0.705
2091,5808.333333333334,-1.055,-0.705
2092,5811.111111111111,-1.035,-0.68
2093,5813.888888888889,-1.01,-0.675
2094,5816.666666666666,-1.005,-0.655
2095,5819.444444444444,-1.0,-0.64
2096,5822.222222222222,-1.01,-0.65
2097,5825.0,-1.0,-0.67
2098,5827.777777777777,-1.005,-0.685
2099,5830.555555555556,-1.03,-0.675
2100,5833.333333333333,-1.025,-0.685
2101,5836.111111111111,-1.035,-0.685
2102,5838.888888888889,-1.035,-0.69
2103,5841.666666666667,-1.03,-0.675
2104,5844.444444444444,-1.025,-0.675
2105,5847.222222222223,-1.025,-0.655
2106,5850.0,-1.015,-0.665
2107,5852.777777777778,-1.02,-0.675
2108,5855.555555555555,-1.02,-0.68
2109,5858.333333333333,-1.01,-0.69
2110,5861.11111111111,-1.015,-0.695
2111,5863.888888888889,-1.035,-0.695
2112,5866.666666666666,-1.045,-0.72
2113,5869.444444444444,-1.04,-0.71
2114,5872.222222222222,-1.03,-0.705
2115,5875.0,-1.04,-0.7
2116,5877.777777777778,-1.04,-0.695
2117,5880.555555555556,-1.03,-0.675
2118,5883.333333333334,-1.02,-0.67
2119,5886.111111111111,-1.01,-0.67
2120,5888.88888888889,-0.995,-0.665
2121,5891.666666666667,-1.0,-0.69
2122,5894.444444444445,-1.005,-0.695
2123,5897.222222222222,-1.035,-0.715
2124,5900.0,-1.06,-0.71
2125,5902.777777777777,-1.045,-0.71
2126,5905.555555555556,-1.045,-0.7
2127,5908.333333333333,-1.04,-0.695
2128,5911.111111111111,-1.025,-0.69
2129,5913.888888888889,-1.03,-0.68
2130,5916.666666666667,-1.01,-0.665
2131,5919.444444444444,-1.0,-0.68
2132,5922.222222222223,-1.005,-0.67
2133,5925.0,-1.015,-0.675
2134,5927.777777777778,-1.005,-0.66
2135,5930.555555555556,-1.02,-0.68
2136,5933.333333333334,-1.025,-0.695
2137,5936.111111111111,-1.015,-0.685
2138,5938.888888888889,-1.03,-0.68
2139,5941.666666666666,-1.02,-0.675
2140,5944.444444444444,-1.025,-0.66
2141,5947.222222222222,-1.02,-0.65
2142,5950.0,-1.025,-0.655
2143,5952.777777777777,-1.0,-0.65
2144,5955.555555555556,-1.01,-0.63
2145,5958.333333333333,-1.01,-0.64
2146,5961.111111111111,-0.995,-0.675
2147,5963.888888888889,-1.005,-0.66
2148,5966.666666666667,-1.01,-0.65
2149,5969.444444444444,-1.01,-0.655
2150,5972.222222222223,-1.025,-0.67
2151,5975.0,-1.03,-0.65
2152,5977.777777777778,-1.015,-0.65
2153,5980.555555555555,-1.02,-0.63
2154,5983.333333333333,-1.005,-0.63
2155,5986.11111111111,-0.99,-0.635
2156,5988.888888888889,-0.995,-0.63
2157,5991.666666666666,-0.985,-0.64
2158,5994.444444444444,-1.01,-0.635
2159,5997.222222222222,-1.005,-0.66
2160,6000.0,-1.005,-0.675
2161,6002.777777777778,-1.02,-0.665
2162,6005.555555555556,-1.03,-0.67
2163,6008.333333333334,-1.015,-0.65
2164,6011.111111111111,-1.005,-0.645
2165,6013.88888888889,-0.99,-0.625
2166,6016.666666666667,-0.97,-0.62
2167,6019.444444444445,-0.97,-0.61
2168,6022.222222222222,-0.965,-0.63
2169,6025.0,-0.97,-0.62
2170,6027.777777777777,-0.94,-0.65
2171,6030.555555555556,-0.925,-0.645
2172,6033.333333333333,-0.925,-0.675
2173,6036.111111111111,-0.93,-0.68
2174,6038.888888888889,-0.94,-0.68
2175,6041.666666666667,-0.94,-0.665
2176,6044.444444444444,-0.935,-0.645
2177,6047.222222222223,-0.915,-0.625
2178,6050.0,-0.895,-0.585
2179,6052.777777777778,-0.87,-0.585
2180,6055.555555555556,-0.86,-0.59
2181,6058.333333333334,-0.83,-0.565
2182,6061.111111111111,-0.84,-0.565
2183,6063.888888888889,-0.84,-0.56
2184,6066.666666666666,-0.845,-0.555
2185,6069.444444444444,-0.84,-0.54
2186,6072.222222222222,-0.855,-0.51
2187,6075.0,-0.865,-0.5
2188,6077.777777777777,-0.87,-0.49
2189,6080.555555555556,-0.865,-0.47
2190,6083.333333333333,-0.86,-0.475
2191,6086.111111111111,-0.865,-0.48
2192,6088.888888888889,-0.875,-0.49
2193,6091.666666666667,-0.875,-0.515
2194,6094.444444444444,-0.895,-0.49
2195,6097.222222222223,-0.93,-0.53
2196,6100.0,-0.96,-0.53
2197,6102.777777777778,-1.005,-0.55
2198,6105.555555555555,-1.01,-0.55
2199,6108.333333333333,-1.015,-0.575
2200,6111.11111111111,-1.04,-0.56
2201,6113.888888888889,-1.025,-0.565
2202,6116.666666666666,-1.01,-0.59
2203,6119.444444444444,-1.015,-0.605
2204,6122.222222222222,-1.005,-0.61
2205,6125.0,-1.01,-0.63
2206,6127.777777777778,-1.015,-0.645
2207,6130.555555555556,-1.03,-0.645
2208,6133.333333333334,-1.04,-0.66
2209,6136.111111111111,-1.045,-0.655
2210,6138.88888888889,-1.06,-0.655
2211,6141.666666666667,-1.06,-0.66
2212,6144.444444444445,-1.065,-0.655
2213,6147.222222222222,-1.065,-0.65
2214,6150.0,-1.045,-0.63
2215,6152.777777777777,-1.03,-0.635
2216,6155.555555555556,-1.03,-0.62
2217,6158.333333333333,-1.015,-0.635
2218,6161.111111111111,-1.02,-0.64
2219,6163.888888888889,-1.03,-0.66
2220,6166.666666666667,-1.03,-0.665
2221,6169.444444444444,-1.03,-0.67
2222,6172.222222222223,-1.04,-0.665
2223,6175.0,-1.04,-0.66
2224,6177.777777777778,-1.035,-0.64
2225,6180.555555555556,-1.025,-0.615
2226,6183.333333333334,-1.015,-0.62
2227,6186.111111111111,-1.0,-0.6
2228,6188.888888888889,-0.985,-0.63
2229,6191.666666666666,-0.995,-0.63
2230,6194.444444444444,-0.975,-0.635
2231,6197.222222222222,-0.96,-0.65
2232,6200.0,-0.885,-0.615
2233,6202.777777777777,-0.8,-0.565
2234,6205.555555555556,-0.71,-0.465
2235,6208.333333333333,-0.6,-0.3
2236,6211.111111111111,-0.445,-0.075
2237,6213.888888888889,-0.3,0.17
2238,6216.666666666667,-0.18,0.43
2239,6219.444444444444,-0.13,0.68
2240,6222.222222222223,-0.195,0.885
2241,6225.0,-0.36,1.02
2242,6227.777777777778,-0.6,1.03
2243,6230.555555555555,-0.885,0.935
2244,6233.333333333333,-1.185,0.695
2245,6236.11111111111,-1.455,0.355
2246,6238.888888888889,-1.7,-0.06
2247,6241.666666666666,-1.86,-0.5
2248,6244.444444444444,-1.92,-0.885
2249,6247.222222222222,-1.875,-1.145
2250,6250.0,-1.76,-1.21
2251,6252.777777777778,-1.62,-1.125
2252,6255.555555555556,-1.505,-0.995
2253,6258.333333333334,-1.415,-0.885
2254,6261.111111111111,-1.34,-0.805
2255,6263.88888888889,-1.29,-0.785
2256,6266.666666666667,-1.23,-0.76
2257,6269.444444444445,-1.165,-0.735
2258,6272.222222222222,-1.095,-0.7
2259,6275.0,-1.04,-0.655
2260,6277.777777777777,-0.99,-0.63
2261,6280.555555555556,-0.96,-0.62
2262,6283.333333333333,-0.945,-0.6
2263,6286.111111111111,-0.935,-0.605
2264,6288.888888888889,-0.94,-0.605
2265,6291.666666666667,-0.94,-0.625
2266,6294.444444444444,-0.945,-0.625
2267,6297.222222222223,-0.935,-0.625
2268,6300.0,-0.945,-0.635
2269,6302.777777777778,-0.93,-0.625
2270,6305.555555555556,-0.935,-0.61
2271,6308.333333333334,-0.93,-0.62
2272,6311.111111111111,-0.91,-0.585
2273,6313.888888888889,-0.89,-0.585
2274,6316.666666666666,-0.885,-0.565
2275,6319.444444444444,-0.87,-0.565
2276,6322.222222222222,-0.885,-0.575
2277,6325.0,-0.875,-0.57
2278,6327.777777777777,-0.875,-0.575
2279,6330.555555555556,-0.88,-0.585
2280,6333.333333333333,-0.885,-0.58
2281,6336.111111111111,-0.88,-0.575
2282,6338.888888888889,-0.89,-0.57
2283,6341.666666666667,-0.875,-0.56
2284,6344.444444444444,-0.87,-0.55
2285,6347.222222222223,-0.855,-0.55
2286,6350.0,-0.845,-0.53
2287,6352.777777777778,-0.82,-0.545
2288,6355.555555555555,-0.825,-0.525
2289,6358.333333333333,-0.815,-0.515
2290,6361.11111111111,-0.83,-0.52
2291,6363.888888888889,-0.835,-0.54
2292,6366.666666666666,-0.865,-0.535
2293,6369.444444444444,-0.86,-0.545
2294,6372.222222222222,-0.845,-0.51
2295,6375.0,-0.845,-0.515
2296,6377.777777777778,-0.83,-0.51
2297,6380.555555555556,-0.815,-0.485
2298,6383.333333333334,-0.795,-0.47
2299,6386.111111111111,-0.805,-0.465
2300,6388.88888888889,-0.8,-0.46
2301,6391.666666666667,-0.79,-0.47
2302,6394.444444444445,-0.775,-0.465
2303,6397.222222222222,-0.78,-0.47
2304,6400.0,-0.775,-0.465
2305,6402.777777777777,-0.775,-0.46
2306,6405.555555555556,-0.785,-0.445
2307,6408.333333333333,-0.77,-0.44
2308,6411.111111111111,-0.745,-0.42
2309,6413.888888888889,-0.74,-0.4
2310,6416.666666666667,-0.715,-0.39
2311,6419.444444444444,-0.705,-0.395
2312,6422.222222222223,-0.7,-0.39
2313,6425.0,-0.7,-0.365
2314,6427.777777777778,-0.685,-0.375
2315,6430.555555555556,-0.695,-0.355
2316,6433.333333333334,-0.69,-0.36
2317,6436.111111111111,-0.665,-0.355
2318,6438.888888888889,-0.65,-0.335
2319,6441.666666666666,-0.645,-0.31
2320,6444.444444444444,-0.62,-0.275
2321,6447.222222222222,-0.605,-0.26
2322,6450.0,-0.585,-0.245
2323,6452.777777777777,-0.555,-0.23
2324,6455.555555555556,-0.54,-0.205
2325,6458.333333333333,-0.52,-0.205
2326,6461.111111111111,-0.495,-0.195
2327,6463.888888888889,-0.485,-0.19
2328,6466.666666666667,-0.495,-0.19
2329,6469.444444444444,-0.475,-0.18
2330,6472.222222222223,-0.48,-0.15
2331,6475.0,-0.455,-0.13
2332,6477.777777777778,-0.42,-0.09
2333,6480.555555555555,-0.4,-0.09
2334,6483.333333333333,-0.39,-0.03
2335,6486.11111111111,-0.365,-0.035
2336,6488.888888888889,-0.375,-0.015
2337,6491.666666666666,-0.355,-0.025
2338,6494.444444444444,-0.365,0.0
2339,6497.222222222222,-0.335,0.005
2340,6500.0,-0.325,-0.005
2341,6502.777777777778,-0.32,0.015
2342,6505.555555555556,-0.305,0.03
2343,6508.333333333334,-0.31,0.04
2344,6511.111111111111,-0.295,0.05
2345,6513.88888888889,-0.295,0.07
2346,6516.666666666667,-0.295,0.08
2347,6519.444444444445,-0.285,0.095
2348,6522.222222222222,-0.28,0.09
2349,6525.0,-0.3,0.075
2350,6527.777777777777,-0.305,0.07
2351,6530.555555555556,-0.32,0.06
2352,6533.333333333333,-0.305,0.035
2353,6536.111111111111,-0.335,0.03
2354,6538.888888888889,-0.34,0.025
2355,6541.666666666667,-0.35,0.01
2356,6544.444444444444,-0.365,0.005
2357,6547.222222222223,-0.37,-0.02
2358,6550.0,-0.38,-0.055
2359,6552.777777777778,-0.39,-0.085
2360,6555.555555555556,-0.415,-0.125
2361,6558.333333333334,-0.46,-0.15
2362,6561.111111111111,-0.5,-0.195
2363,6563.888888888889,-0.55,-0.23
2364,6566.666666666666,-0.565,-0.285
2365,6569.444444444444,-0.595,-0.32
2366,6572.222222222222,-0.62,-0.35
2367,6575.0,-0.655,-0.375
2368,6577.777777777777,-0.68,-0.385
2369,6580.555555555556,-0.685,-0.41
2370,6583.333333333333,-0.7,-0.445
2371,6586.111111111111,-0.725,-0.48
2372,6588.888888888889,-0.755,-0.49
2373,6591.666666666667,-0.775,-0.51
2374,6594.444444444444,-0.8,-0.565
2375,6597.222222222223,-0.825,-0.58
2376,6600.0,-0.835,-0.62
2377,6602.777777777778,-0.845,-0.62
2378,6605.555555555555,-0.865,-0.645
2379,6608.333333333333,-0.86,-0.64
2380,6611.11111111111,-0.865,-0.63
2381,6613.888888888889,-0.875,-0.64
2382,6616.666666666666,-0.88,-0.645
2383,6619.444444444444,-0.865,-0.655
2384,6622.222222222222,-0.88,-0.665
2385,6625.0,-0.9,-0.67
2386,6627.777777777778,-0.905,-0.7
2387,6630.555555555556,-0.915,-0.7
2388,6633.333333333334,-0.91,-0.725
2389,6636.111111111111,-0.92,-0.72
2390,6638.88888888889,-0.92,-0.725
2391,6641.666666666667,-0.915,-0.705
2392,6644.444444444445,-0.9,-0.71
2393,6647.222222222222,-0.9,-0.705
2394,6650.0,-0.895,-0.695
2395,6652.777777777777,-0.89,-0.695
2396,6655.555555555556,-0.895,-0.695
2397,6658.333333333333,-0.895,-0.695
2398,6661.111111111111,-0.9,-0.72
2399,6663.888888888889,-0.9,-0.715
2400,6666.666666666667,-0.91,-0.74
2401,6669.444444444444,-0.915,-0.745
2402,6672.222222222223,-0.925,-0.745
2403,6675.0,-0.91,-0.735
2404,6677.777777777778,-0.915,-0.715
2405,6680.555555555556,-0.9,-0.715
2406,6683.333333333334,-0.885,-0.705
2407,6686.111111111111,-0.865,-0.685
2408,6688.888888888889,-0.875,-0.695
2409,6691.666666666666,-0.875,-0.69
2410,6694.444444444444,-0.885,-0.705
2411,6697.222222222222,-0.9,-0.71
2412,6700.0,-0.9,-0.725
2413,6702.777777777777,-0.9,-0.725
2414,6705.555555555556,-0.91,-0.7
2415,6708.333333333333,-0.925,-0.71
2416,6711.111111111111,-0.89,-0.695
2417,6713.888888888889,-0.895,-0.685
2418,6716.666666666667,-0.875,-0.685
2419,6719.444444444444,-0.885,-0.67
2420,6722.222222222223,-0.89,-0.68
2421,6725.0,-0.895,-0.675
2422,6727.777777777778,-0.89,-0.695
2423,6730.555555555555,-0.9,-0.695
2424,6733.333333333333,-0.91,-0.705
2425,6736.11111111111,-0.915,-0.7
2426,6738.888888888889,-0.93,-0.705
2427,6741.666666666666,-0.905,-0.68
2428,6744.444444444444,-0.915,-0.685
2429,6747.222222222222,-0.9,-0.665
2430,6750.0,-0.895,-0.66
2431,6752.777777777778,-0.89,-0.665
2432,6755.555555555556,-0.89,-0.67
2433,6758.333333333334,-0.895,-0.675
2434,6761.111111111111,-0.9,-0.68
2435,6763.88888888889,-0.93,-0.69
2436,6766.666666666667,-0.935,-0.7
2437,6769.444444444445,-0.945,-0.705
2438,6772.222222222222,-0.95,-0.7
2439,6775.0,-0.965,-0.705
2440,6777.777777777777,-0.96,-0.7
2441,6780.555555555556,-0.95,-0.68
2442,6783.333333333333,-0.935,-0.67
2443,6786.111111111111,-0.905,-0.675
2444,6788.888888888889,-0.92,-0.675
2445,6791.666666666667,-0.92,-0.695
2446,6794.444444444444,-0.93,-0.71
2447,6797.222222222223,-0.95,-0.73
2448,6800.0,-0.95,-0.73
2449,6802.777777777778,-0.965,-0.725
2450,6805.555555555556,-0.98,-0.735
2451,6808.333333333334,-0.965,-0.74
2452,6811.111111111111,-0.96,-0.72
2453,6813.888888888889,-0.965,-0.73
2454,6816.666666666666,-0.94,-0.72
2455,6819.444444444444,-0.94,-0.725
2456,6822.222222222222,-0.945,-0.73
2457,6825.0,-0.94,-0.74
2458,6827.777777777777,-0.95,-0.75
2459,6830.555555555556,-0.97,-0.76
2460,6833.333333333333,-0.97,-0.76
2461,6836.111111111111,-0.98,-0.77
2462,6838.888888888889,-0.99,-0.77
2463,6841.666666666667,-0.98,-0.75
2464,6844.444444444444,-0.97,-0.74
2465,6847.222222222223,-0.97,-0.75
2466,6850.0,-0.96,-0.73
2467,6852.777777777778,-0.95,-0.74
2468,6855.555555555555,-0.955,-0.735
2469,6858.333333333333,-0.955,-0.735
2470,6861.11111111111,-0.975,-0.755
2471,6863.888888888889,-0.99,-0.78
2472,6866.666666666666,-0.99,-0.775
2473,6869.444444444444,-0.995,-0.775
2474,6872.222222222222,-0.995,-0.77
2475,6875.0,-0.99,-0.785
2476,6877.777777777778,-0.99,-0.78
2477,6880.555555555556,-0.98,-0.755
2478,6883.333333333334,-0.98,-0.76
2479,6886.111111111111,-0.98,-0.765
2480,6888.88888888889,-0.97,-0.765
2481,6891.666666666667,-0.965,-0.76
2482,6894.444444444445,-0.97,-0.77
2483,6897.222222222222,-0.98,-0.79
2484,6900.0,-0.99,-0.795
2485,6902.777777777777,-0.98,-0.8
2486,6905.555555555556,-0.985,-0.785
2487,6908.333333333333,-1.0,-0.79
2488,6911.111111111111,-1.01,-0.775
2489,6913.888888888889,-0.985,-0.745
2490,6916.666666666667,-0.975,-0.765
2491,6919.444444444444,-0.97,-0.745
2492,6922.222222222223,-0.975,-0.755
2493,6925.0,-0.98,-0.755
2494,6927.777777777778,-0.995,-0.77
2495,6930.555555555556,-0.99,-0.78
2496,6933.333333333334,-1.005,-0.775
2497,6936.111111111111,-0.99,-0.765
2498,6938.888888888889,-1.005,-0.75
2499,6941.666666666666,-1.01,-0.755
2500,6944.444444444444,-0.98,-0.74
2501,6947.222222222222,-0.98,-0.74
2502,6950.0,-0.98,-0.7
2503,6952.777777777777,-0.965,-0.72
2504,6955.555555555556,-0.965,-0.7
2505,6958.333333333333,-0.97,-0.715
2506,6961.111111111111,-0.98,-0.735
2507,6963.888888888889,-0.98,-0.755
2508,6966.666666666667,-0.985,-0.75
2509,6969.444444444444,-0.98,-0.75
2510,6972.222222222223,-1.0,-0.74
2511,6975.0,-0.99,-0.73
2512,6977.777777777778,-0.99,-0.745
2513,6980.555555555555,-0.985,-0.73
2514,6983.333333333333,-0.96,-0.705
2515,6986.11111111111,-0.945,-0.72
2516,6988.888888888889,-0.955,-0.71
2517,6991.666666666666,-0.975,-0.725
2518,6994.444444444444,-0.98,-0.74
2519,6997.222222222222,-0.975,-0.735
2520,7000.0,-0.985,-0.75
2521,7002.777777777778,-0.99,-0.755
2522,7005.555555555556,-1.005,-0.74
2523,7008.333333333334,-1.01,-0.735
2524,7011.111111111111,-1.005,-0.72
2525,7013.88888888889,-0.99,-0.715
2526,7016.666666666667,-0.98,-0.715
2527,7019.444444444445,-0.97,-0.715
2528,7022.222222222222,-0.975,-0.71
2529,7025.0,-0.995,-0.72
2530,7027.777777777777,-0.98,-0.735
2531,7030.555555555556,-0.98,-0.725
2532,7033.333333333333,-0.99,-0.75
2533,7036.111111111111,-0.995,-0.745
2534,7038.888888888889,-0.995,-0.73
2535,7041.666666666667,-0.99,-0.735
2536,7044.444444444444,-0.985,-0.725
2537,7047.222222222223,-0.98,-0.715
2538,7050.0,-0.97,-0.71
2539,7052.777777777778,-0.965,-0.7
2540,7055.555555555556,-0.97,-0.71
2541,7058.333333333334,-0.985,-0.72
2542,7061.111111111111,-0.98,-0.72
2543,7063.888888888889,-0.99,-0.725
2544,7066.666666666666,-1.0,-0.74
2545,7069.444444444444,-1.0,-0.75
2546,7072.222222222222,-0.995,-0.725
2547,7075.0,-0.995,-0.74
2548,7077.777777777777,-0.985,-0.73
2549,7080.555555555556,-0.965,-0.715
2550,7083.333333333333,-0.96,-0.715
2551,7086.111111111111,-0.945,-0.715
2552,7088.888888888889,-0.945,-0.72
2553,7091.666666666667,-0.95,-0.72
2554,7094.444444444444,-0.96,-0.72
2555,7097.222222222223,-0.965,-0.745
2556,7100.0,-0.98,-0.76
2557,7102.777777777778,-0.975,-0.745
2558,7105.555555555555,-0.99,-0.74
2559,7108.333333333333,-0.98,-0.765
2560,7111.11111111111,-0.98,-0.74
2561,7113.888888888889,-0.985,-0.73
2562,7116.666666666666,-0.97,-0.725
2563,7119.444444444444,-0.98,-0.72
2564,7122.222222222222,-0.96,-0.725
2565,7125.0,-0.96,-0.705
2566,7127.777777777778,-0.95,-0.725
2567,7130.555555555556,-0.975,-0.73
2568,7133.333333333334,-0.975,-0.745
2569,7136.111111111111,-0.98,-0.73
2570,7138.88888888889,-0.975,-0.72
2571,7141.666666666667,-0.985,-0.715
2572,7144.444444444445,-0.975,-0.705
2573,7147.222222222222,-0.96,-0.69
2574,7150.0,-0.955,-0.69
2575,7152.777777777777,-0.955,-0.695
2576,7155.555555555556,-0.95,-0.69
2577,7158.333333333333,-0.955,-0.705
2578,7161.111111111111,-0.96,-0.72
2579,7163.888888888889,-0.965,-0.72
2580,7166.666666666667,-0.96,-0.73
2581,7169.444444444444,-0.97,-0.715
2582,7172.222222222223,-1.0,-0.715
2583,7175.0,-0.985,-0.7
2584,7177.777777777778,-0.96,-0.695
2585,7180.555555555556,-0.955,-0.68
2586,7183.333333333334,-0.945,-0.68
2587,7186.111111111111,-0.94,-0.68
2588,7188.888888888889,-0.945,-0.69
2589,7191.666666666666,-0.93,-0.68
2590,7194.444444444444,-0.945,-0.705
2591,7197.222222222222,-0.965,-0.7
2592,7200.0,-0.96,-0.705
2593,7202.777777777777,-0.965,-0.705
2594,7205.555555555556,-0.975,-0.7
2595,7208.333333333333,-0.955,-0.68
2596,7211.111111111111,-0.95,-0.67
2597,7213.888888888889,-0.935,-0.66
2598,7216.666666666667,-0.92,-0.65
2599,7219.444444444444,-0.9,-0.655
2600,7222.222222222223,-0.885,-0.65
2601,7225.0,-0.87,-0.67
2602,7227.777777777778,-0.86,-0.675
2603,7230.555555555555,-0.86,-0.695
2604,7233.333333333333,-0.85,-0.715
2605,7236.11111111111,-0.86,-0.715
2606,7238.888888888889,-0.865,-0.695
2607,7241.666666666666,-0.87,-0.67
2608,7244.444444444444,-0.85,-0.64
2609,7247.222222222222,-0.845,-0.625
2610,7250.0,-0.8,-0.595
2611,7252.777777777778,-0.78,-0.585
2612,7255.555555555556,-0.77,-0.585
2613,7258.333333333334,-0.78,-0.58
2614,7261.111111111111,-0.79,-0.58
2615,7263.88888888889,-0.78,-0.57
2616,7266.666666666667,-0.795,-0.56
2617,7269.444444444445,-0.795,-0.54
2618,7272.222222222222,-0.825,-0.535
2619,7275.0,-0.84,-0.53
2620,7277.777777777777,-0.83,-0.515
2621,7280.555555555556,-0.825,-0.515
2622,7283.333333333333,-0.84,-0.505
2623,7286.111111111111,-0.835,-0.5
2624,7288.888888888889,-0.85,-0.525
2625,7291.666666666667,-0.855,-0.52
2626,7294.444444444444,-0.865,-0.54
2627,7297.222222222223,-0.89,-0.56
2628,7300.0,-0.915,-0.585
2629,7302.777777777778,-0.935,-0.6
2630,7305.555555555556,-0.965,-0.62
2631,7308.333333333334,-0.965,-0.61
2632,7311.111111111111,-0.97,-0.62
2633,7313.888888888889,-0.97,-0.64
2634,7316.666666666666,-0.97,-0.63
2635,7319.444444444444,-0.95,-0.64
2636,7322.222222222222,-0.96,-0.665
2637,7325.0,-0.945,-0.68
2638,7327.777777777777,-0.955,-0.675
2639,7330.555555555556,-0.965,-0.675
2640,7333.333333333333,-0.99,-0.7
2641,7336.111111111111,-1.01,-0.695
2642,7338.888888888889,-1.005,-0.695
2643,7341.666666666667,-1.01,-0.695
2644,7344.444444444444,-1.01,-0.68
2645,7347.222222222223,-1.01,-0.68
2646,7350.0,-0.99,-0.665
2647,7352.777777777778,-0.98,-0.68
2648,7355.555555555555,-0.99,-0.68
2649,7358.333333333333,-0.965,-0.685
2650,7361.11111111111,-0.965,-0.7
2651,7363.888888888889,-0.975,-0.7
2652,7366.666666666666,-0.98,-0.705
2653,7369.444444444444,-0.985,-0.705
2654,7372.222222222222,-0.975,-0.71
2655,7375.0,-0.965,-0.675
2656,7377.777777777778,-0.95,-0.67
2657,7380.555555555556,-0.955,-0.665
2658,7383.333333333334,-0.95,-0.645
2659,7386.111111111111,-0.93,-0.645
2660,7388.88888888889,-0.89,-0.67
2661,7391.666666666667,-0.87,-0.67
2662,7394.444444444445,-0.805,-0.64
2663,7397.222222222222,-0.725,-0.595
2664,7400.0,-0.595,-0.47
2665,7402.777777777777,-0.465,-0.275
2666,7405.555555555556,-0.315,-0.025
2667,7408.333333333333,-0.165,0.265
2668,7411.111111111111,-0.09,0.56
2669,7413.888888888889,-0.09,0.825
2670,7416.666666666667,-0.205,1.02
2671,7419.444444444444,-0.4,1.135
2672,7422.222222222223,-0.645,1.05
2673,7425.0,-0.925,0.835
2674,7427.777777777778,-1.2,0.5
2675,7430.555555555556,-1.455,0.13
2676,7433.333333333334,-1.645,-0.28
2677,7436.111111111111,-1.715,-0.63
2678,7438.888888888889,-1.695,-0.86
2679,7441.666666666666,-1.6,-0.95
2680,7444.444444444444,-1.475,-0.885
2681,7447.222222222222,-1.345,-0.795
2682,7450.0,-1.24,-0.69
2683,7452.777777777777,-1.15,-0.64
2684,7455.555555555556,-1.075,-0.63
2685,7458.333333333333,-1.015,-0.605
2686,7461.111111111111,-0.955,-0.62
2687,7463.888888888889,-0.925,-0.625
2688,7466.666666666667,-0.91,-0.625
2689,7469.444444444444,-0.9,-0.635
2690,7472.222222222223,-0.92,-0.65
2691,7475.0,-0.915,-0.62
2692,7477.777777777778,-0.91,-0.625
2693,7480.555555555555,-0.91,-0.615
2694,7483.333333333333,-0.905,-0.62
2695,7486.11111111111,-0.885,-0.615
2696,7488.888888888889,-0.875,-0.615
2697,7491.666666666666,-0.865,-0.625
2698,7494.444444444444,-0.87,-0.605
2699,7497.222222222222,-0.865,-0.635
2700,7500.0,-0.88,-0.63
2701,7502.777777777778,-0.885,-0.635
2702,7505.555555555556,-0.88,-0.615
2703,7508.333333333334,-0.875,-0.61
2704,7511.111111111111,-0.865,-0.605
2705,7513.88888888889,-0.855,-0.595
2706,7516.666666666667,-0.85,-0.575
2707,7519.444444444445,-0.825,-0.545
2708,7522.222222222222,-0.835,-0.57
2709,7525.0,-0.845,-0.58
2710,7527.777777777777,-0.85,-0.575
2711,7530.555555555556,-0.835,-0.575
2712,7533.333333333333,-0.84,-0.585
2713,7536.111111111111,-0.84,-0.58
2714,7538.888888888889,-0.84,-0.59
2715,7541.666666666667,-0.855,-0.565
2716,7544.444444444444,-0.83,-0.545
2717,7547.222222222223,-0.82,-0.525
2718,7550.0,-0.81,-0.52
2719,7552.777777777778,-0.805,-0.525
2720,7555.555555555556,-0.81,-0.51
2721,7558.333333333334,-0.795,-0.515
2722,7561.111111111111,-0.805,-0.525
2723,7563.888888888889,-0.8,-0.545
2724,7566.666666666666,-0.79,-0.53
2725,7569.444444444444,-0.8,-0.54
2726,7572.222222222222,-0.79,-0.525
2727,7575.0,-0.8,-0.505
2728,7577.777777777777,-0.775,-0.48
2729,7580.555555555556,-0.77,-0.47
2730,7583.333333333333,-0.76,-0.465
2731,7586.111111111111,-0.74,-0.465
2732,7588.888888888889,-0.74,-0.455
2733,7591.666666666667,-0.745,-0.455
2734,7594.444444444444,-0.755,-0.46
2735,7597.222222222223,-0.74,-0.46
2736,7600.0,-0.735,-0.455
2737,7602.777777777778,-0.735,-0.455
2738,7605.555555555555,-0.735,-0.44
2739,7608.333333333333,-0.725,-0.42
2740,7611.11111111111,-0.69,-0.395
2741,7613.888888888889,-0.685,-0.4
2742,7616.666666666666,-0.675,-0.37
2743,7619.444444444444,-0.66,-0.36
2744,7622.222222222222,-0.635,-0.34
2745,7625.0,-0.62,-0.35
2746,7627.777777777778,-0.615,-0.335
2747,7630.555555555556,-0.615,-0.325
2748,7633.333333333334,-0.61,-0.33
2749,7636.111111111111,-0.595,-0.325
2750,7638.88888888889,-0.585,-0.285
2751,7641.666666666667,-0.58,-0.275
2752,7644.444444444445,-0.545,-0.255
2753,7647.222222222222,-0.51,-0.225
2754,7650.0,-0.485,-0.215
2755,7652.777777777777,-0.47,-0.195
2756,7655.555555555556,-0.465,-0.175
2757,7658.333333333333,-0.46,-0.155
2758,7661.111111111111,-0.445,-0.145
2759,7663.888888888889,-0.415,-0.14
2760,7666.666666666667,-0.405,-0.12
2761,7669.444444444444,-0.4,-0.125
2762,7672.222222222223,-0.385,-0.1
2763,7675.0,-0.36,-0.075
2764,7677.777777777778,-0.35,-0.045
2765,7680.555555555556,-0.32,-0.02
2766,7683.333333333334,-0.305,0.01
2767,7686.111111111111,-0.27,0.025
2768,7688.888888888889,-0.255,0.035
2769,7691.666666666666,-0.24,0.04
2770,7694.444444444444,-0.235,0.055
2771,7697.222222222222,-0.235,0.055
2772,7700.0,-0.245,0.04
2773,7702.777777777777,-0.23,0.035
2774,7705.555555555556,-0.23,0.06
2775,7708.333333333333,-0.23,0.075
2776,7711.111111111111,-0.22,0.08
2777,7713.888888888889,-0.205,0.125
2778,7716.666666666667,-0.21,0.15
2779,7719.444444444444,-0.2,0.14
2780,7722.222222222223,-0.215,0.11
2781,7725.0,-0.22,0.105
2782,7727.777777777778,-0.235,0.075
2783,7730.555555555555,-0.255,0.065
2784,7733.333333333333,-0.305,0.025
2785,7736.11111111111,-0.32,0.0
2786,7738.888888888889,-0.36,-0.03
2787,7741.666666666666,-0.39,-0.045
2788,7744.444444444444,-0.405,-0.08
2789,7747.222222222222,-0.445,-0.11
2790,7750.0,-0.455,-0.12
2791,7752.777777777778,-0.47,-0.165
2792,7755.555555555556,-0.5,-0.2
2793,7758.333333333334,-0.55,-0.23
2794,7761.111111111111,-0.575,-0.29
2795,7763.88888888889,-0.62,-0.33
2796,7766.666666666667,-0.675,-0.365
2797,7769.444444444445,-0.675,-0.395
2798,7772.222222222222,-0.71,-0.43
2799,7775.0,-0.75,-0.445
2800,7777.777777777777,-0.76,-0.455
2801,7780.555555555556,-0.765,-0.47
2802,7783.333333333333,-0.78,-0.47
2803,7786.111111111111,-0.785,-0.495
2804,7788.888888888889,-0.8,-0.515
2805,7791.666666666667,-0.815,-0.54
2806,7794.444444444444,-0.84,-0.56
2807,7797.222222222223,-0.835,-0.58
2808,7800.0,-0.865,-0.595
2809,7802.777777777778,-0.89,-0.605
2810,7805.555555555556,-0.905,-0.605
2811,7808.333333333334,-0.895,-0.6
2812,7811.111111111111,-0.885,-0.605
2813,7813.888888888889,-0.885,-0.6
2814,7816.666666666666,-0.885,-0.59
2815,7819.444444444444,-0.87,-0.605
2816,7822.222222222222,-0.885,-0.605
2817,7825.0,-0.885,-0.615
2818,7827.777777777777,-0.885,-0.625
2819,7830.555555555556,-0.9,-0.625
2820,7833.333333333333,-0.91,-0.655
2821,7836.111111111111,-0.925,-0.655
2822,7838.888888888889,-0.9,-0.65
2823,7841.666666666667,-0.905,-0.65
2824,7844.444444444444,-0.9,-0.63
2825,7847.222222222223,-0.895,-0.64
2826,7850.0,-0.89,-0.63
2827,7852.777777777778,-0.875,-0.615
2828,7855.555555555555,-0.875,-0.64
2829,7858.333333333333,-0.895,-0.635
2830,7861.11111111111,-0.895,-0.635
2831,7863.888888888889,-0.9,-0.635
2832,7866.666666666666,-0.91,-0.66
2833,7869.444444444444,-0.905,-0.665
2834,7872.222222222222,-0.92,-0.645
2835,7875.0,-0.915,-0.655
2836,7877.777777777778,-0.9,-0.645
2837,7880.555555555556,-0.895,-0.625
2838,7883.333333333334,-0.885,-0.62
2839,7886.111111111111,-0.865,-0.615
2840,7888.88888888889,-0.875,-0.62
2841,7891.666666666667,-0.865,-0.625
2842,7894.444444444445,-0.86,-0.64
2843,7897.222222222222,-0.88,-0.64
2844,7900.0,-0.875,-0.65
2845,7902.777777777777,-0.895,-0.645
2846,7905.555555555556,-0.895,-0.635
2847,7908.333333333333,-0.885,-0.65
2848,7911.111111111111,-0.89,-0.615
2849,7913.888888888889,-0.87,-0.605
2850,7916.666666666667,-0.87,-0.59
2851,7919.444444444444,-0.85,-0.6
2852,7922.222222222223,-0.86,-0.595
2853,7925.0,-0.875,-0.6
2854,7927.777777777778,-0.875,-0.6
2855,7930.555555555556,-0.875,-0.625
2856,7933.333333333334,-0.905,-0.62
2857,7936.111111111111,-0.89,-0.635
2858,7938.888888888889,-0.91,-0.63
2859,7941.666666666666,-0.91,-0.63
2860,7944.444444444444,-0.91,-0.62
2861,7947.222222222222,-0.89,-0.635
2862,7950.0,-0.89,-0.605
2863,7952.777777777777,-0.89,-0.6
2864,7955.555555555556,-0.885,-0.615
2865,7958.333333333333,-0.885,-0.605
2866,7961.111111111111,-0.895,-0.63
2867,7963.888888888889,-0.9,-0.635
2868,7966.666666666667,-0.93,-0.655
2869,7969.444444444444,-0.945,-0.65
2870,7972.222222222223,-0.95,-0.65
2871,7975.0,-0.95,-0.64
2872,7977.777777777778,-0.945,-0.635
2873,7980.555555555555,-0.94,-0.63
2874,7983.333333333333,-0.925,-0.62
2875,7986.11111111111,-0.91,-0.61
2876,7988.888888888889,-0.905,-0.63
2877,7991.666666666666,-0.935,-0.635
2878,7994.444444444444,-0.935,-0.655
2879,7997.222222222222,-0.945,-0.65
2880,8000.0,-0.965,-0.675
2881,8002.777777777778,-0.965,-0.685
2882,8005.555555555557,-0.965,-0.67
2883,8008.333333333333,-0.965,-0.65
2884,8011.111111111111,-0.955,-0.65
2885,8013.88888888889,-0.955,-0.635
2886,8016.666666666668,-0.95,-0.645
2887,8019.444444444444,-0.94,-0.64
2888,8022.222222222222,-0.93,-0.635
2889,8025.0,-0.94,-0.65
2890,8027.777777777778,-0.945,-0.67
2891,8030.555555555555,-0.96,-0.68
2892,8033.333333333333,-0.955,-0.68
2893,8036.111111111111,-0.96,-0.69
2894,8038.88888888889,-0.96,-0.705
2895,8041.666666666666,-0.96,-0.67
2896,8044.444444444444,-0.97,-0.665
2897,8047.222222222223,-0.955,-0.64
2898,8050.000000000001,-0.96,-0.655
2899,8052.777777777777,-0.94,-0.645
2900,8055.555555555556,-0.94,-0.65
2901,8058.333333333334,-0.93,-0.655
2902,8061.111111111112,-0.94,-0.67
2903,8063.888888888888,-0.95,-0.685
2904,8066.666666666666,-0.975,-0.68
2905,8069.444444444444,-0.975,-0.7
2906,8072.222222222223,-0.98,-0.68
2907,8074.999999999999,-0.97,-0.665
2908,8077.777777777777,-0.96,-0.665
2909,8080.555555555556,-0.95,-0.66
2910,8083.333333333334,-0.935,-0.655
2911,8086.11111111111,-0.93,-0.63
2912,8088.888888888889,-0.925,-0.645
2913,8091.666666666667,-0.925,-0.65
2914,8094.444444444445,-0.94,-0.66
2915,8097.222222222222,-0.95,-0.67
2916,8100.0,-0.945,-0.675
2917,8102.777777777778,-0.955,-0.68
2918,8105.555555555556,-0.96,-0.675
2919,8108.333333333332,-0.96,-0.65
2920,8111.11111111111,-0.95,-0.64
2921,8113.888888888889,-0.95,-0.645
2922,8116.666666666667,-0.95,-0.62
2923,8119.444444444443,-0.94,-0.635
2924,8122.222222222222,-0.945,-0.63
2925,8125.0,-0.95,-0.65
2926,8127.777777777778,-0.945,-0.655
2927,8130.555555555557,-0.95,-0.675
2928,8133.333333333333,-0.955,-0.68
2929,8136.111111111111,-0.955,-0.67
2930,8138.88888888889,-0.965,-0.65
2931,8141.666666666668,-0.96,-0.665
2932,8144.444444444444,-0.965,-0.65
2933,8147.222222222222,-0.96,-0.645
2934,8150.0,-0.95,-0.65
2935,8152.777777777778,-0.94,-0.625
2936,8155.555555555555,-0.94,-0.635
2937,8158.333333333333,-0.945,-0.64
2938,8161.111111111111,-0.945,-0.655
2939,8163.88888888889,-0.955,-0.675
2940,8166.666666666666,-0.96,-0.685
2941,8169.444444444444,-0.97,-0.69
2942,8172.222222222223,-0.975,-0.7
2943,8175.000000000001,-0.955,-0.68
2944,8177.777777777777,-0.955,-0.665
2945,8180.555555555556,-0.95,-0.665
2946,8183.333333333334,-0.945,-0.65
2947,8186.111111111112,-0.94,-0.655
2948,8188.888888888888,-0.94,-0.65
2949,8191.666666666666,-0.94,-0.655
2950,8194.444444444445,-0.94,-0.68
2951,8197.222222222223,-0.935,-0.665
2952,8200.0,-0.97,-0.675
2953,8202.777777777777,-0.96,-0.68
2954,8205.555555555557,-0.96,-0.68
2955,8208.333333333334,-0.96,-0.65
2956,8211.11111111111,-0.965,-0.65
2957,8213.888888888889,-0.96,-0.64
2958,8216.666666666666,-0.935,-0.65
2959,8219.444444444445,-0.935,-0.63
2960,8222.22222222222,-0.935,-0.63
2961,8225.0,-0.93,-0.65
2962,8227.777777777777,-0.925,-0.655
2963,8230.555555555557,-0.935,-0.675
2964,8233.333333333332,-0.94,-0.66
2965,8236.111111111111,-0.96,-0.675
2966,8238.888888888889,-0.97,-0.67
2967,8241.666666666668,-0.97,-0.66
2968,8244.444444444443,-0.94,-0.655
2969,8247.222222222223,-0.94,-0.655
2970,8250.0,-0.935,-0.645
2971,8252.777777777777,-0.92,-0.645
2972,8255.555555555557,-0.915,-0.64
2973,8258.333333333332,-0.92,-0.635
2974,8261.111111111111,-0.93,-0.65
2975,8263.888888888889,-0.945,-0.67
2976,8266.666666666668,-0.955,-0.67
2977,8269.444444444443,-0.93,-0.675
2978,8272.222222222223,-0.945,-0.67
2979,8275.0,-0.955,-0.655
2980,8277.77777777778,-0.94,-0.645
2981,8280.555555555555,-0.935,-0.64
2982,8283.333333333334,-0.92,-0.64
2983,8286.111111111111,-0.905,-0.635
2984,8288.88888888889,-0.925,-0.615
2985,8291.666666666666,-0.94,-0.625
2986,8294.444444444443,-0.925,-0.625
2987,8297.222222222223,-0.93,-0.645
2988,8300.0,-0.94,-0.655
2989,8302.777777777777,-0.94,-0.66
2990,8305.555555555555,-0.96,-0.645
2991,8308.333333333334,-0.965,-0.64
2992,8311.111111111111,-0.95,-0.645
2993,8313.888888888889,-0.925,-0.625
2994,8316.666666666666,-0.93,-0.62
2995,8319.444444444445,-0.915,-0.63
2996,8322.222222222223,-0.92,-0.635
2997,8325.0,-0.93,-0.635
2998,8327.777777777777,-0.925,-0.645
2999,8330.555555555557,-0.945,-0.66
3000,8333.333333333334,-0.935,-0.645
3001,8336.11111111111,-0.935,-0.64
3002,8338.888888888889,-0.95,-0.65
3003,8341.666666666666,-0.95,-0.64
3004,8344.444444444445,-0.945,-0.62
3005,8347.22222222222,-0.935,-0.625
3006,8350.0,-0.91,-0.615
3007,8352.777777777777,-0.91,-0.61
3008,8355.555555555557,-0.915,-0.625
3009,8358.333333333332,-0.92,-0.625
3010,8361.111111111111,-0.915,-0.63
3011,8363.888888888889,-0.93,-0.64
3012,8366.666666666668,-0.925,-0.65
3013,8369.444444444443,-0.935,-0.645
3014,8372.222222222223,-0.935,-0.63
3015,8375.0,-0.945,-0.625
3016,8377.777777777777,-0.94,-0.625
3017,8380.555555555557,-0.925,-0.61
3018,8383.333333333332,-0.92,-0.62
3019,8386.111111111111,-0.905,-0.605
3020,8388.888888888889,-0.91,-0.6
3021,8391.666666666668,-0.93,-0.61
3022,8394.444444444443,-0.91,-0.61
3023,8397.222222222223,-0.92,-0.625
3024,8400.0,-0.935,-0.645
3025,8402.77777777778,-0.925,-0.65
3026,8405.555555555555,-0.91,-0.625
3027,8408.333333333334,-0.905,-0.62
3028,8411.111111111111,-0.88,-0.625
3029,8413.88888888889,-0.865,-0.62
3030,8416.666666666666,-0.835,-0.62
3031,8419.444444444443,-0.82,-0.605
3032,8422.222222222223,-0.82,-0.61
3033,8425.0,-0.81,-0.6
3034,8427.777777777777,-0.825,-0.595
3035,8430.555555555555,-0.82,-0.59
3036,8433.333333333334,-0.815,-0.59
3037,8436.111111111111,-0.81,-0.585
3038,8438.888888888889,-0.785,-0.565
3039,8441.666666666666,-0.765,-0.54
3040,8444.444444444445,-0.76,-0.53
3041,8447.222222222223,-0.755,-0.515
3042,8450.0,-0.755,-0.48
3043,8452.777777777777,-0.755,-0.455
3044,8455.555555555557,-0.74,-0.44
3045,8458.333333333334,-0.755,-0.44
3046,8461.11111111111,-0.77,-0.435
3047,8463.888888888889,-0.79,-0.46
3048,8466.666666666666,-0.805,-0.47
3049,8469.444444444445,-0.83,-0.47
3050,8472.22222222222,-0.845,-0.47
3051,8475.0,-0.84,-0.485
3052,8477.777777777777,-0.85,-0.455
3053,8480.555555555557,-0.865,-0.455
3054,8483.333333333332,-0.87,-0.46
3055,8486.111111111111,-0.895,-0.45
3056,8488.888888888889,-0.9,-0.49
3057,8491.666666666668,-0.895,-0.52
3058,8494.444444444443,-0.915,-0.54
3059,8497.222222222223,-0.925,-0.565
3060,8500.0,-0.935,-0.575
3061,8502.777777777777,-0.96,-0.6
3062,8505.555555555557,-0.965,-0.61
3063,8508.333333333332,-0.95,-0.595
3064,8511.111111111111,-0.955,-0.59
3065,8513.888888888889,-0.955,-0.59
3066,8516.666666666668,-0.94,-0.58
3067,8519.444444444443,-0.96,-0.59
3068,8522.222222222223,-0.97,-0.6
3069,8525.0,-0.97,-0.605
3070,8527.77777777778,-0.955,-0.615
3071,8530.555555555555,-0.97,-0.62
3072,8533.333333333334,-0.975,-0.635
3073,8536.111111111111,-0.98,-0.645
3074,8538.88888888889,-0.985,-0.645
3075,8541.666666666666,-0.99,-0.64
3076,8544.444444444443,-0.975,-0.635
3077,8547.222222222223,-0.965,-0.625
3078,8550.0,-0.965,-0.615
3079,8552.777777777777,-0.945,-0.625
3080,8555.555555555555,-0.925,-0.63
3081,8558.333333333334,-0.92,-0.62
3082,8561.111111111111,-0.925,-0.645
3083,8563.888888888889,-0.925,-0.65
3084,8566.666666666666,-0.945,-0.635
3085,8569.444444444445,-0.955,-0.635
3086,8572.222222222223,-0.94,-0.63
3087,8575.0,-0.93,-0.62
3088,8577.777777777777,-0.89,-0.605
3089,8580.555555555557,-0.81,-0.57
3090,8583.333333333334,-0.735,-0.51
3091,8586.11111111111,-0.63,-0.41
3092,8588.888888888889,-0.5,-0.25
3093,8591.666666666666,-0.355,-0.045
3094,8594.444444444445,-0.235,0.2
3095,8597.22222222222,-0.13,0.46
3096,8600.0,-0.12,0.705
3097,8602.777777777777,-0.205,0.885
3098,8605.555555555557,-0.385,1.0
3099,8608.333333333332,-0.64,0.985
3100,8611.111111111111,-0.925,0.815
3101,8613.888888888889,-1.205,0.54
3102,8616.666666666668,-1.48,0.155
3103,8619.444444444443,-1.665,-0.275
3104,8622.222222222223,-1.76,-0.67
3105,8625.0,-1.75,-0.96
3106,8627.777777777777,-1.67,-1.065
3107,8630.555555555557,-1.545,-1.04
3108,8633.333333333332,-1.43,-0.935
3109,8636.111111111111,-1.32,-0.825
3110,8638.888888888889,-1.23,-0.745
3111,8641.666666666668,-1.13,-0.685
3112,8644.444444444443,-1.065,-0.635
3113,8647.222222222223,-0.985,-0.605
3114,8650.0,-0.94,-0.575
3115,8652.77777777778,-0.905,-0.565
3116,8655.555555555555,-0.895,-0.56
3117,8658.333333333334,-0.895,-0.555
3118,8661.111111111111,-0.905,-0.555
3119,8663.88888888889,-0.915,-0.575
3120,8666.666666666666,-0.92,-0.575
3121,8669.444444444443,-0.925,-0.59
3122,8672.222222222223,-0.91,-0.58
3123,8675.0,-0.905,-0.585
3124,8677.777777777777,-0.88,-0.56
3125,8680.555555555555,-0.865,-0.53
3126,8683.333333333334,-0.855,-0.525
3127,8686.111111111111,-0.835,-0.505
3128,8688.888888888889,-0.825,-0.525
3129,8691.666666666666,-0.845,-0.525
3130,8694.444444444445,-0.83,-0.535
3131,8697.222222222223,-0.845,-0.525
3132,8700.0,-0.83,-0.54
3133,8702.777777777777,-0.84,-0.53
3134,8705.555555555557,-0.83,-0.515
3135,8708.333333333334,-0.84,-0.535
3136,8711.11111111111,-0.83,-0.505
3137,8713.888888888889,-0.82,-0.505
3138,8716.666666666666,-0.82,-0.485
3139,8719.444444444445,-0.82,-0.485
3140,8722.22222222222,-0.8,-0.48
3141,8725.0,-0.8,-0.485
3142,8727.777777777777,-0.8,-0.5
3143,8730.555555555557,-0.79,-0.505
3144,8733.333333333332,-0.805,-0.505
3145,8736.111111111111,-0.8,-0.485
3146,8738.888888888889,-0.815,-0.485
3147,8741.666666666668,-0.8,-0.48
3148,8744.444444444443,-0.8,-0.46
3149,8747.222222222223,-0.795,-0.46
3150,8750.0,-0.78,-0.455
3151,8752.777777777777,-0.77,-0.435
3152,8755.555555555557,-0.765,-0.445
3153,8758.333333333332,-0.77,-0.44
3154,8761.111111111111,-0.77,-0.44
3155,8763.888888888889,-0.775,-0.43
3156,8766.666666666668,-0.775,-0.45
3157,8769.444444444443,-0.77,-0.46
3158,8772.222222222223,-0.775,-0.43
3159,8775.0,-0.765,-0.42
3160,8777.77777777778,-0.76,-0.4
3161,8780.555555555555,-0.735,-0.405
3162,8783.333333333334,-0.715,-0.385
3163,8786.111111111111,-0.71,-0.365
3164,8788.88888888889,-0.675,-0.335
3165,8791.666666666666,-0.68,-0.355
3166,8794.444444444443,-0.68,-0.34
3167,8797.222222222223,-0.675,-0.345
3168,8800.0,-0.68,-0.355
3169,8802.777777777777,-0.67,-0.34
3170,8805.555555555555,-0.67,-0.33
3171,8808.333333333334,-0.645,-0.31
3172,8811.111111111111,-0.63,-0.285
3173,8813.888888888889,-0.61,-0.255
3174,8816.666666666666,-0.575,-0.24
3175,8819.444444444445,-0.56,-0.2
3176,8822.222222222223,-0.555,-0.19
3177,8825.0,-0.525,-0.175
3178,8827.777777777777,-0.51,-0.175
3179,8830.555555555557,-0.51,-0.155
3180,8833.333333333334,-0.5,-0.155
3181,8836.11111111111,-0.49,-0.145
3182,8838.888888888889,-0.465,-0.11
3183,8841.666666666666,-0.445,-0.09
3184,8844.444444444445,-0.43,-0.055
3185,8847.22222222222,-0.4,-0.03
3186,8850.0,-0.38,0.005
3187,8852.777777777777,-0.355,0.025
3188,8855.555555555557,-0.335,0.05
3189,8858.333333333332,-0.315,0.06
3190,8861.111111111111,-0.31,0.07
3191,8863.888888888889,-0.295,0.08
3192,8866.666666666668,-0.29,0.085
3193,8869.444444444443,-0.29,0.115
3194,8872.222222222223,-0.285,0.125
3195,8875.0,-0.275,0.155
3196,8877.777777777777,-0.235,0.16
3197,8880.555555555557,-0.235,0.18
3198,8883.333333333332,-0.22,0.205
3199,8886.111111111111,-0.195,0.2
3200,8888.888888888889,-0.18,0.195
3201,8891.666666666668,-0.17,0.2
3202,8894.444444444443,-0.185,0.2
3203,8897.222222222223,-0.18,0.19
3204,8900.0,-0.2,0.195
3205,8902.77777777778,-0.195,0.175
3206,8905.555555555555,-0.23,0.165
3207,8908.333333333334,-0.24,0.19
3208,8911.111111111111,-0.235,0.17
3209,8913.88888888889,-0.26,0.16
3210,8916.666666666666,-0.27,0.16
3211,8919.444444444443,-0.28,0.135
3212,8922.222222222223,-0.305,0.105
3213,8925.0,-0.32,0.07
3214,8927.777777777777,-0.36,0.03
3215,8930.555555555555,-0.385,-0.025
3216,8933.333333333334,-0.42,-0.06
3217,8936.111111111111,-0.46,-0.095
3218,8938.888888888889,-0.505,-0.125
3219,8941.666666666666,-0.52,-0.16
3220,8944.444444444445,-0.555,-0.19
3221,8947.222222222223,-0.6,-0.21
3222,8950.0,-0.62,-0.24
3223,8952.777777777777,-0.635,-0.28
3224,8955.555555555557,-0.67,-0.325
3225,8958.333333333334,-0.68,-0.36
3226,8961.11111111111,-0.71,-0.405
3227,8963.888888888889,-0.735,-0.405
3228,8966.666666666666,-0.75,-0.455
3229,8969.444444444445,-0.77,-0.455
3230,8972.22222222222,-0.82,-0.48
3231,8975.0,-0.805,-0.485
3232,8977.777777777777,-0.81,-0.49
3233,8980.555555555557,-0.82,-0.5
3234,8983.333333333332,-0.83,-0.49
3235,8986.111111111111,-0.82,-0.48
3236,8988.888888888889,-0.825,-0.495
3237,8991.666666666668,-0.835,-0.52
3238,8994.444444444443,-0.855,-0.54
3239,8997.222222222223,-0.87,-0.565
3240,9000.0,-0.865,-0.56
3241,9002.777777777777,-0.87,-0.585
3242,9005.555555555557,-0.885,-0.585
3243,9008.333333333332,-0.885,-0.59
3244,9011.111111111111,-0.885,-0.565
3245,9013.888888888889,-0.89,-0.57
3246,9016.666666666668,-0.885,-0.57
3247,9019.444444444443,-0.875,-0.545
3248,9022.222222222223,-0.865,-0.55
3249,9025.0,-0.87,-0.58
3250,9027.77777777778,-0.865,-0.575
3251,9030.555555555555,-0.88,-0.61
3252,9033.333333333334,-0.89,-0.61
3253,9036.111111111111,-0.885,-0.595
3254,9038.88888888889,-0.885,-0.61
3255,9041.666666666666,-0.89,-0.595
3256,9044.444444444443,-0.89,-0.59
3257,9047.222222222223,-0.875,-0.565
3258,9050.0,-0.87,-0.575
3259,9052.777777777777,-0.855,-0.565
3260,9055.555555555555,-0.85,-0.57
3261,9058.333333333334,-0.865,-0.555
3262,9061.111111111111,-0.87,-0.565
3263,9063.888888888889,-0.87,-0.56
3264,9066.666666666666,-0.865,-0.58
3265,9069.444444444445,-0.875,-0.555
3266,9072.222222222223,-0.875,-0.555
3267,9075.0,-0.86,-0.55
3268,9077.777777777777,-0.86,-0.535
3269,9080.555555555557,-0.845,-0.54
3270,9083.333333333334,-0.85,-0.53
3271,9086.11111111111,-0.835,-0.525
3272,9088.888888888889,-0.845,-0.53
3273,9091.666666666666,-0.84,-0.54
3274,9094.444444444445,-0.855,-0.535
3275,9097.22222222222,-0.87,-0.55
3276,9100.0,-0.87,-0.54
3277,9102.777777777777,-0.88,-0.55
3278,9105.555555555557,-0.88,-0.56
3279,9108.333333333332,-0.875,-0.52
3280,9111.111111111111,-0.865,-0.53
3281,9113.888888888889,-0.86,-0.525
3282,9116.666666666668,-0.85,-0.52
3283,9119.444444444443,-0.845,-0.51
3284,9122.222222222223,-0.85,-0.52
3285,9125.0,-0.845,-0.52
3286,9127.777777777777,-0.865,-0.54
3287,9130.555555555557,-0.87,-0.555
3288,9133.333333333332,-0.885,-0.55
3289,9136.111111111111,-0.9,-0.555
3290,9138.888888888889,-0.915,-0.57
3291,9141.666666666668,-0.895,-0.575
3292,9144.444444444443,-0.9,-0.565
3293,9147.222222222223,-0.91,-0.55
3294,9150.0,-0.905,-0.535
3295,9152.77777777778,-0.885,-0.535
3296,9155.555555555555,-0.9,-0.54
3297,9158.333333333334,-0.915,-0.54
3298,9161.111111111111,-0.895,-0.56
3299,9163.88888888889,-0.9,-0.575
3300,9166.666666666666,-0.915,-0.575
3301,9169.444444444443,-0.945,-0.57
3302,9172.222222222223,-0.93,-0.58
3303,9175.0,-0.935,-0.58
3304,9177.777777777777,-0.935,-0.58
3305,9180.555555555555,-0.92,-0.57
3306,9183.333333333334,-0.915,-0.57
3307,9186.111111111111,-0.915,-0.55
3308,9188.888888888889,-0.91,-0.575
3309,9191.666666666666,-0.915,-0.585
3310,9194.444444444445,-0.91,-0.58
3311,9197.222222222223,-0.93,-0.58
3312,9200.0,-0.945,-0.605
3313,9202.777777777777,-0.96,-0.605
3314,9205.555555555557,-0.95,-0.635
3315,9208.333333333334,-0.945,-0.59
3316,9211.11111111111,-0.93,-0.58
3317,9213.888888888889,-0.93,-0.585
3318,9216.666666666666,-0.915,-0.555
3319,9219.444444444445,-0.91,-0.55
3320,9222.22222222222,-0.9,-0.585
3321,9225.0,-0.895,-0.58
3322,9227.777777777777,-0.905,-0.595
3323,9230.555555555557,-0.92,-0.595
3324,9233.333333333332,-0.935,-0.615
3325,9236.111111111111,-0.98,-0.6
3326,9238.888888888889,-0.955,-0.63
3327,9241.666666666668,-0.98,-0.61
3328,9244.444444444443,-0.965,-0.59
3329,9247.222222222223,-0.96,-0.58
3330,9250.0,-0.96,-0.565
3331,9252.777777777777,-0.935,-0.56
3332,9255.555555555557,-0.94,-0.565
3333,9258.333333333332,-0.945,-0.565
3334,9261.111111111111,-0.93,-0.585
3335,9263.888888888889,-0.945,-0.59
3336,9266.666666666668,-0.965,-0.605
3337,9269.444444444443,-0.97,-0.605
3338,9272.222222222223,-0.955,-0.615
3339,9275.0,-0.975,-0.6
3340,9277.77777777778,-0.95,-0.59
3341,9280.555555555555,-0.945,-0.59
3342,9283.333333333334,-0.93,-0.575
3343,9286.111111111111,-0.925,-0.575
3344,9288.88888888889,-0.92,-0.57
3345,9291.666666666666,-0.935,-0.59
3346,9294.444444444443,-0.945,-0.585
3347,9297.222222222223,-0.95,-0.59
3348,9300.0,-0.95,-0.605
3349,9302.777777777777,-0.955,-0.6
3350,9305.555555555555,-0.965,-0.6
3351,9308.333333333334,-0.96,-0.595
3352,9311.111111111111,-0.955,-0.57
3353,9313.888888888889,-0.945,-0.58
3354,9316.666666666666,-0.93,-0.57
3355,9319.444444444445,-0.925,-0.56
3356,9322.222222222223,-0.93,-0.575
3357,9325.0,-0.94,-0.56
3358,9327.777777777777,-0.96,-0.57
3359,9330.555555555557,-0.96,-0.585
3360,9333.333333333334,-0.95,-0.575
3361,9336.11111111111,-0.975,-0.6
3362,9338.888888888889,-0.97,-0.59
3363,9341.666666666666,-0.965,-0.6
3364,9344.444444444445,-0.965,-0.575
3365,9347.22222222222,-0.96,-0.585
3366,9350.0,-0.96,-0.575
3367,9352.777777777777,-0.945,-0.555
3368,9355.555555555557,-0.94,-0.56
3369,9358.333333333332,-0.945,-0.565
3370,9361.111111111111,-0.935,-0.585
3371,9363.888888888889,-0.94,-0.58
3372,9366.666666666668,-0.955,-0.585
3373,9369.444444444443,-0.965,-0.6
3374,9372.222222222223,-0.97,-0.595
3375,9375.0,-0.96,-0.6
3376,9377.777777777777,-0.95,-0.585
3377,9380.555555555557,-0.95,-0.575
3378,9383.333333333332,-0.935,-0.57
3379,9386.111111111111,-0.93,-0.565
3380,9388.888888888889,-0.935,-0.585
3381,9391.666666666668,-0.935,-0.57
3382,9394.444444444443,-0.945,-0.58
3383,9397.222222222223,-0.965,-0.595
3384,9400.0,-0.945,-0.605
3385,9402.77777777778,-0.965,-0.605
3386,9405.555555555555,-0.97,-0.6
3387,9408.333333333334,-0.955,-0.59
3388,9411.111111111111,-0.95,-0.595
3389,9413.88888888889,-0.95,-0.575
3390,9416.666666666666,-0.935,-0.59
3391,9419.444444444443,-0.91,-0.575
3392,9422.222222222223,-0.91,-0.585
3393,9425.0,-0.915,-0.58
3394,9427.777777777777,-0.925,-0.585
3395,9430.555555555555,-0.93,-0.59
3396,9433.333333333334,-0.935,-0.59
3397,9436.111111111111,-0.98,-0.595
3398,9438.888888888889,-0.965,-0.61
3399,9441.666666666666,-0.955,-0.59
3400,9444.444444444445,-0.965,-0.6
3401,9447.222222222223,-0.95,-0.585
3402,9450.0,-0.95,-0.565
3403,9452.777777777777,-0.96,-0.56
3404,9455.555555555557,-0.94,-0.56
3405,9458.333333333334,-0.935,-0.57
3406,9461.11111111111,-0.94,-0.57
3407,9463.888888888889,-0.945,-0.57
3408,9466.666666666666,-0.935,-0.58
3409,9469.444444444445,-0.96,-0.585
3410,9472.22222222222,-0.96,-0.585
3411,9475.0,-0.96,-0.59
3412,9477.777777777777,-0.96,-0.585
3413,9480.555555555557,-0.945,-0.57
3414,9483.333333333332,-0.935,-0.575
3415,9486.111111111111,-0.925,-0.565
3416,9488.888888888889,-0.92,-0.575
3417,9491.666666666668,-0.92,-0.575
3418,9494.444444444443,-0.925,-0.585
3419,9497.222222222223,-0.93,-0.595
3420,9500.0,-0.935,-0.585
3421,9502.777777777777,-0.945,-0.6
3422,9505.555555555557,-0.95,-0.58
3423,9508.333333333332,-0.945,-0.59
3424,9511.111111111111,-0.945,-0.575
3425,9513.888888888889,-0.94,-0.58
3426,9516.666666666668,-0.93,-0.585
3427,9519.444444444443,-0.915,-0.545
3428,9522.222222222223,-0.915,-0.575
3429,9525.0,-0.91,-0.56
3430,9527.77777777778,-0.92,-0.565
3431,9530.555555555555,-0.93,-0.59
3432,9533.333333333334,-0.945,-0.585
3433,9536.111111111111,-0.945,-0.6
3434,9538.88888888889,-0.95,-0.6
3435,9541.666666666666,-0.95,-0.575
3436,9544.444444444443,-0.94,-0.58
3437,9547.222222222223,-0.925,-0.57
3438,9550.0,-0.92,-0.575
3439,9552.777777777777,-0.915,-0.57
3440,9555.555555555555,-0.92,-0.57
3441,9558.333333333334,-0.91,-0.57
3442,9561.111111111111,-0.91,-0.57
3443,9563.888888888889,-0.905,-0.585
3444,9566.666666666666,-0.925,-0.59
3445,9569.444444444445,-0.92,-0.59
3446,9572.222222222223,-0.92,-0.585
3447,9575.0,-0.91,-0.595
3448,9577.777777777777,-0.905,-0.57
3449,9580.555555555557,-0.895,-0.57
3450,9583.333333333334,-0.87,-0.555
3451,9586.11111111111,-0.845,-0.565
3452,9588.888888888889,-0.84,-0.55
3453,9591.666666666666,-0.83,-0.565
3454,9594.444444444445,-0.825,-0.58
3455,9597.22222222222,-0.835,-0.59
3456,9600.0,-0.84,-0.585
3457,9602.777777777777,-0.83,-0.57
3458,9605.555555555557,-0.83,-0.58
3459,9608.333333333332,-0.805,-0.555
3460,9611.111111111111,-0.78,-0.535
3461,9613.888888888889,-0.755,-0.53
3462,9616.666666666668,-0.74,-0.495
3463,9619.444444444443,-0.725,-0.47
3464,9622.222222222223,-0.72,-0.46
3465,9625.0,-0.72,-0.465
3466,9627.777777777777,-0.73,-0.44
3467,9630.555555555557,-0.73,-0.425
3468,9633.333333333332,-0.755,-0.415
3469,9636.111111111111,-0.765,-0.42
3470,9638.888888888889,-0.8,-0.42
3471,9641.666666666668,-0.805,-0.415
3472,9644.444444444443,-0.8,-0.41
3473,9647.222222222223,-0.8,-0.405
3474,9650.0,-0.805,-0.42
3475,9652.77777777778,-0.81,-0.41
3476,9655.555555555555,-0.84,-0.425
3477,9658.333333333334,-0.845,-0.43
3478,9661.111111111111,-0.875,-0.445
3479,9663.88888888889,-0.885,-0.47
3480,9666.666666666666,-0.895,-0.5
3481,9669.444444444443,-0.905,-0.535
3482,9672.222222222223,-0.9,-0.545
